	anatase	rutile				
50.085188	200.333333	-16.7448933748906				
50.495301	267	14.6170799273316				
50.905386	311.333333	-55.6858623632477				
51.315442	314	-4.65365973208486				
51.72547	297	-20.0856434549744				
52.135469	253.666667	20.2595660190404				
52.54544	270.333333	27.9379938606064				
52.955382	315.333333	55.2829699757081				
53.365296	292.333333	77.6278304583611				
53.775181	279.333333	105.30590621455				
54.185037	336.666667	34.3171972442735				
54.594865	317	106.661705641549				
55.004665	343.333333	143.339433406376				
55.414436	332.666667	77.350376444738				
55.824178	321.666667	48.6945327566359				
56.233893	302.666667	157.371912530101				
56.643578	298.333333	140.382503483085				
57.053235	302	131.392978803622				
57.462864	312	123.403339491709				
57.872464	322	121.746915453332				
58.282035	384.333333	100.75703868849				
58.691578	345.666667	177.1003812912				
59.101093	320.666667	88.7769422614613				
59.510579	295.333333	155.453384505258				
59.920036	349	137.46304102259				
60.329466	293.666667	76.1392540014897				
60.738866	305.333333	139.815344159909				
61.148238	314	86.1579866858792				
61.557582	287	125.167180579401				
61.966897	343	75.8429227464585				
62.376184	358	99.5185502810671				
62.785442	363.333333	157.860726089211				
63.194672	361.666667	70.2027872649069				
63.603874	376	114.544732808154				
64.013047	366.666667	98.2198936249367				
64.422191	348.666667	115.228269715255				
64.831307	317	127.569863173124				
65.240395	308.333333	112.244675998545				
65.649454	370	122.252704097501				
66.058485	263.333333	110.593949564009				
66.467487	315	108.935077304052				
66.876461	309.666667	73.2760904116469				
67.285407	326.333333	27.6169878867931				
67.694324	388	110.957767635475				
68.103212	304.333333	48.2984286576914				
68.512072	331.666667	120.97230804746				
68.920904	354.666667	83.9794058047798				
69.329708	274	61.9863889296512				
69.738483	339.666667	35.3265873280579				
70.147229	372.333333	0				
70.555947	383.666667	58.2027537830081				
70.964637	323.666667	65.4054251690923				
71.373298	304.333333	69.6080112155053				
71.781931	377.666667	89.4771818649945				
72.190536	320.333333	48.67960311756				
72.599112	284	28.2152720304541				
73.00766	272.666667	56.7508585464245				
73.416179	350	20.2863607227237				
73.82467	354.666667	66.8217795020992				
74.233133	279.666667	21.0237828845507				
74.641567	347	18.559033927331				
75.049973	300.333333	33.4275365731876				
75.45835	335.333333	34.629286879373				
75.8667	341.333333	36.1642907313817				
76.27502	283.666667	44.6992073009721				
76.683313	359	39.2340434163859				
77.091577	320	111.435461192129				
77.499813	376.666667	56.9701295709476				
77.90802	265	67.5047136100952				
78.316199	390.666667	118.372547252319				
78.72435	378.333333	70.5736324976192				
79.132472	281.333333	104.107966403248				
79.540566	347	64.642216911953				
79.948631	309.333333	104.843049080987				
80.356669	348	187.377134795844				
80.764678	360.666667	95.5778021710303				
81.172658	356.333333	137.111718206545				
81.580611	387.666667	117.312220787884				
81.988534	333.666667	144.512635086804				
82.39643	354.666667	162.379635931547				
82.804297	339.333333	148.91321943662				
83.212136	291	135.780052544768				
83.619947	305.666667	155.646804255992				
84.02773	292.666667	173.180139570293				
84.435484	328.666667	141.380056544923				
84.843209	401	181.913222179881				
85.250907	380	200.446307360663				
85.658576	359.666667	126.979307201774				
86.066217	326.333333	248.178891645961				
86.473829	327.666667	222.045057750477				
86.881414	323	212.577810400816				
87.28897	309	235.443811711484				
87.696497	389.666667	209.976393682481				
88.103997	389	244.508897199301				
88.511468	395	260.041314376451				
88.918911	379.333333	255.573649156676				
89.326325	435.333333	276.43923259723				
89.733712	339.333333	268.304736583608				
90.14107	356.666667	293.503488230314				
90.548399	358.666667	322.03548753735				
90.955701	393	308.234074390209				
91.362974	430.333333	367.765908903396				
91.770219	406	300.29766201966				
92.177436	364	417.162664739				
92.584624	407.333333	329.027583118669				
92.991785	375.666667	299.225755044161				
93.398917	368.333333	354.423841629982				
93.80602	379.666667	334.621842876132				
94.213096	446.333333	350.819764668106				
94.620143	368	396.684268120408				
95.027162	336	342.548688175787				
95.434153	381.333333	420.079693834241				
95.841116	433	391.610616095772				
96.24805	444.333333	319.141453017631				
96.654956	412.333333	386.005541542567				
97.061834	495.666667	347.536213670579				
97.468684	417	399.066804401667				
97.875505	421.666667	369.597308793084				
98.282298	385.333333	443.461064787577				
98.689063	459.666667	369.991404385146				
99.0958	404	370.854995585791				
99.502509	421.333333	351.718503389513				
99.909189	463.333333	407.248593853563				
100.315842	446.666667	477.445270863437				
100.722466	428.333333	380.975195533639				
101.129061	460.333333	413.171701864171				
101.535629	464.333333	452.034795740526				
101.942169	499.333333	456.564473219957				
102.34868	500.666667	398.427399359717				
102.755163	419.666667	425.290242102553				
103.161618	394.333333	448.486336448465				
103.568045	485.333333	456.015682397453				
103.974443	479	398.544942006771				
104.380814	478.666667	387.074122161911				
104.787156	579.333333	421.603217977381				
105.19347	462.666667	396.798897395926				
105.599756	570.333333	381.661160417548				
106.006014	522.666667	432.190009042246				
106.412243	445.333333	467.718771327273				
106.818445	474.333333	484.914121158123				
107.224618	479.333333	447.109385649302				
107.630763	453.333333	355.971234743557				
108.03688	476.666667	425.499667440889				
108.442969	507	368.361351741296				
108.84903	548.333333	386.55628664478				
109.255062	546.666667	434.417802208592				
109.661067	528.666667	407.279239318228				
110.067043	537	384.473924088193				
110.472991	494.666667	427.001859461234				
110.878911	550.666667	466.863046437351				
111.284803	597.666667	443.057484016544				
111.690667	604	446.251839198814				
112.096503	554.666667	430.779444984159				
112.50231	622	466.306966429834				
112.90809	670	443.834407421332				
113.313841	687.666667	450.695097073158				
113.719564	639	423.889037328061				
114.125259	652	402.08289518604				
114.530926	697	438.943336647095				
114.936565	727.333333	430.137029711227				
115.342176	624.666667	484.997307378434				
115.747759	758.333333	363.190835648718				
116.153314	653.333333	398.384281522077				
116.55884	743.666667	454.577642055766				
116.964339	734	415.770923135278				
117.369809	819	450.964118875119				
117.775252	702.333333	403.157235160783				
118.180666	709	482.016933106776				
118.586052	799.666667	405.876547655845				
118.99141	815.666667	375.736080807991				
119.39674	926.333333	423.928864563212				
119.802042	895	415.12156592151				
120.207316	945	411.980851882884				
120.612562	945.333333	475.173388447334				
121.01778	968.333333	396.69917561486				
121.42297	979.666667	370.558214385463				
121.828131	998.333333	366.417166816394				
122.233265	984	429.276040793148				
122.638371	991.666667	373.134832372979				
123.043448	1192.666667	364.326871613139				
123.448498	1164.333333	378.852164399122				
123.853519	1097	397.044038845434				
124.258513	1191.333333	414.235833837569				
124.663478	1215.333333	405.094210490033				
125.068416	1254.333333	391.285840688321				
125.473325	1360.333333	378.477385546937				
125.878207	1316.666667	309.668850951377				
126.28306	1412.333333	349.193564016146				
126.687885	1445.333333	316.718194683991				
127.092683	1518.333333	284.242746897659				
127.497452	1561.666667	293.767212771656				
127.902193	1650.333333	355.29159624873				
128.306907	1668.666667	224.815901271626				
128.711592	1808.666667	298.006786954852				
129.116249	1929.666667	289.530923241154				
129.520878	1993.666667	273.721644130532				
129.92548	1990.333333	236.912285565733				
130.330053	2199.666667	311.436174661263				
130.734598	2342.666667	286.62664835987				
131.139116	2352	237.4837096043				
131.543605	2446	259.340685509058				
131.948067	2650	222.53091495964				
132.3525	2728.333333	312.054392070551				
132.756905	2982	257.577786784538				
133.161283	3173.666667	257.101103044349				
133.565632	3388	230.957665964488				
133.969954	3690.333333	193.480817430451				
134.374247	3874	247.670549556743				
134.778513	4062	254.193535228858				
135.182751	4453.333333	217.716438504049				
135.58696	4805.666667	164.905923439569				
135.991142	5111.666667	277.761995920913				
136.395296	5304	238.951319005332				
136.799422	5697.333333	265.807226692828				
137.20352	6112	195.6630509834				
137.60759	6199.333333	164.518793877048				
138.011632	6656.666667	164.374454373772				
138.415646	7103.333333	219.230031473573				
138.819632	7536.333333	168.418860176449				
139.22359	7687	85.2742734824021				
139.62752	8050	113.796270391431				
140.031423	8003.666667	182.651521846283				
140.435297	8254.333333	184.840020961464				
140.839144	8259.666667	195.695107622469				
141.242962	8600.666667	145.216774943802				
141.646753	8485.666667	142.071696810959				
142.050516	8631.333333	183.593202281192				
142.454251	8451	166.114625354501				
142.857958	8332.666667	126.302633030886				
143.261637	7965.666667	135.490558310348				
143.665288	8009.333333	175.011735192885				
144.068911	7730.666667	75.5328286784992				
144.472506	7426.666667	89.0538397671891				
144.876074	7093.333333	93.9081054017022				
145.279613	6866	142.762285696544				
145.683125	6477.333333	86.6163855372099				
146.086609	6289	34.8037369809517				
146.490065	5938	96.9910060277696				
146.893493	5566.666667	129.511526677663				
147.296893	5123	55.6986309306337				
147.700266	5006.333333	72.5523217294273				
148.10361	4644.666667	51.0725951885496				
148.506927	4547.333333	50.9261211934955				
148.910215	4326.666667	106.11289585877				
149.313476	3940	56.6329250698684				
149.716709	3834.333333	20.4862038840428				
150.119914	3575.666667	79.3394013012932				
150.523092	3430.666667	103.525852264367				
150.926241	3247	24.7122178877697				
151.329363	3081.666667	36.2318370569959				
151.732456	2973.333333	20.7513718865509				
152.135522	2790	-4.06250673807062				
152.53856	2761	88.4568652403839				
152.941571	2557	34.976157764662				
153.344553	2468	47.4953659492687				
153.747508	2428.666667	62.6811606796991				
154.150434	2262.333333	-8.46646392954176				
154.553333	2049	111.052500007041				
154.956204	2068.666667	53.2380475466996				
155.359048	2019.666667	43.4235156321818				
155.761863	1877.666667	53.2755643779929				
156.164651	1863	40.4608676696273				
156.567411	1726.666667	-6.68724443566214				
156.970143	1773	29.1645610621246				
157.372847	1631.333333	-15.6503828370126				
157.775523	1547.333333	3.20125686692654				
158.178172	1516.333333	52.052818116689				
158.580793	1397	91.5709629695276				
158.983386	1319.666667	-41.2443075745576				
159.385951	1448.333333	45.6070064844332				
159.788488	1310	35.4582381465002				
160.190998	1242.333333	41.9760563543907				
160.59348	1159.666667	32.8271261653573				
160.995934	1171	36.3447795794001				
161.39836	1222.666667	4.529017596519				
161.800759	1096.666667	15.7131761594612				
162.20313	1059.333333	78.8972523254797				
162.605473	1100	48.0812460945743				
163.007788	1018.333333	100.598490466745				
163.410075	1000.333333	-4.88434655800802				
163.812335	982.666667	22.6327359630623				
164.214567	953	8.81640308720876				
164.616771	859.333333	32.3333208144315				
165.018948	858	15.1834930874775				
165.421096	862.666667	33.7002460208525				
165.823217	851.333333	2.8835865000508				
166.225311	816	60.4577317499433				
166.627376	761.333333	22.1587975964854				
167.029414	844	98.1931707486131				
167.431424	843.333333	2.89418629171769				
167.833406	719.666667	68.5951752257999				
168.235361	711	67.2961394654674				
168.637287	782.333333	53.6637441815041				
169.039186	646.333333	60.0313242031261				
169.441058	666.333333	67.7322135303334				
169.842901	669.666667	83.4330753339102				
170.244717	663.666667	104.467246443072				
170.646505	667	44.8347249432113				
171.048266	621	-31.464488251064				
171.449999	605.333333	71.9029399456379				
171.851704	578	-18.062990466683				
172.253381	605	66.3043865119736				
172.655031	530.666667	31.6717387962153				
173.056653	565.333333	-25.6276015285655				
173.458247	586.333333	8.4063665376309				
173.859814	497	76.4403089094127				
174.261352	500.666667	81.4742257575638				
174.662864	451	23.8414518259081				
175.064347	445	58.2086513706217				
175.465803	490	50.9091592209207				
175.867231	459	27.9429754621971				
176.268632	495.666667	50.3101000090586				
176.670004	518	76.0105310322896				
177.07135	426.666667	90.7109392757136				
177.472667	428	56.0779869955071				
177.873957	439	54.4450100208859				
178.275219	375.666667	19.4786734372422				
178.676453	451.666667	-42.1543547554244				
179.07766	473	23.5459263574942				
179.478839	456.333333	19.5795138613903				
179.879991	429.333333	102.613077670872				
180.281115	344.666667	-15.3533841286699				
180.682211	334	124.346794462766				
181.08328	378	-2.95305164021261				
181.484321	319	77.0804106477859				
181.885334	356.666667	53.4471803267618				
182.286319	408.333333	56.1472573967151				
182.687277	347.333333	28.1806437722535				
183.088208	341.666667	28.8806714533772				
183.489111	309	22.2473405254783				
183.889986	316	66.9473179885566				
184.290833	255	66.9806018426124				
184.691653	294.333333	12.3471950022533				
185.092446	348.666667	47.7137634674796				
185.49321	309.666667	20.0803054090752				
185.893947	266.666667	-1.55317734374387				
186.294657	336	-26.5200177909777				
186.695339	340.666667	30.8464491527658				
187.095993	312	21.5462234874866				
187.49662	269	53.9126401277928				
187.897219	263.333333	61.9456981590761				
188.29779	327.333333	63.3120635813368				
188.698334	269.666667	44.3450713091828				
189.09885	351	64.7113864280061				
189.499339	279	56.4110098524147				
189.8998	310	75.4439416678007				
190.300234	275.666667	29.1435147887719				
190.700639	316.666667	49.5097283861124				
191.101018	363.666667	57.5425852036462				
191.501369	296	56.9087494121574				
191.901692	382	81.9415540116458				
192.301988	379.333333	50.3076679167195				
192.702256	302.333333	85.3404232127706				
193.102496	348.666667	42.3731528997988				
193.502709	341.333333	7.73919089241247				
193.902895	336	21.4385371906114				
194.303053	292	18.8045248797877				
194.703183	327.666667	92.5038199599412				
195.103286	262	45.86975734568				
195.503361	290	55.5690031223961				
195.903409	301.333333	64.6015562046977				
196.303429	335	49.9674176779763				
196.703421	317	-16.0000794577676				
197.103386	265.333333	72.6990647120738				
197.503324	316.666667	70.3981851875003				
197.903234	276	32.4306120539043				
198.303117	336.333333	65.1296822258935				
198.702972	339	117.49539278886				
199.102799	268.333333	69.8610777428038				
199.502599	250.333333	49.893404002333				
199.902371	268.666667	82.2590386528394				
200.302116	243.333333	42.9579826089312				
200.701834	230.666667	33.3235678706081				
201.101524	302	77.3557935232625				
201.501186	325.666667	78.3879945668941				
201.900821	274.333333	45.086836916111				
202.300428	232	65.4523206563052				
202.700008	197.666667	78.8177797020847				
203.099561	151.333333	48.1832140534495				
203.499085	200.666667	70.8819558811837				
203.898583	212	130.247339929111				
204.298053	240.666667	94.6126983680157				
204.697495	233.333333	101.644697197898				
205.09691	155.333333	67.0100053333651				
205.496298	195.333333	54.7086227744176				
205.895658	240	152.740546606448				
206.29499	247	80.1057788294548				
206.694295	180.666667	113.137653358047				
207.093573	153	126.169503192225				
207.492823	206.666667	86.86799341738				
207.892046	238	63.5664589481205				
208.291241	307.333333	105.598232869838				
208.690409	234.333333	101.629982097141				
209.089549	188.333333	131.328371715421				
209.488662	179.333333	138.026736639287				
209.887748	230.333333	82.7250778687377				
210.286806	169.666667	105.423392489166				
210.685836	151.666667	126.121681500571				
211.084839	206	99.4866128175621				
211.483815	216.333333	162.851519440138				
211.882763	193	98.2164004536914				
212.281684	206.333333	150.58125677283				
212.680577	178	27.612754482946				
213.079443	207	136.310893498647				
213.478282	218.666667	18.3423418199337				
213.877093	190	140.040430532198				
214.275877	252	159.738495550047				
214.674633	177.333333	96.769866958873				
215.073362	166.666667	111.467881673285				
215.472063	175	137.165869778674				
215.870737	127.666667	127.863833189648				
216.269384	176.666667	124.895105906208				
216.668003	144	90.5930190137444				
217.066595	146.333333	154.290908426867				
217.46516	166	121.322105145574				
217.863697	222.666667	157.353277255259				
218.262206	143.666667	58.7177567559207				
218.660689	164.666667	87.748879476776				
219.059143	146.666667	102.779974674001				
219.457571	168.333333	196.477714091419				
219.855971	161.333333	186.508759899814				
220.254344	157.666667	111.539782013794				
220.652689	174	150.904111518752				
221.051007	137.666667	127.268416329295				
221.449298	139.333333	163.299363445423				
221.847561	124	179.330283952529				
222.245797	127	168.36118076522				
222.644006	137	237.392052883496				
223.042187	164.333333	210.75623239275				
223.440341	174	149.453720207589				
223.838467	155	140.151182413405				
224.236566	178.333333	230.181953924806				
224.634638	123	134.212700741793				
225.032683	112.333333	176.910088864365				
225.4307	142.333333	233.274118377914				
225.82869	132.666667	129.638123197049				
226.226652	135.666667	196.668769407161				
226.624587	100.666667	198.366056922858				
227.022495	152.666667	165.39665374414				
227.420375	73	215.0938909564				
227.818228	198.333333	186.124437474245				
228.216054	169	114.821625297675				
228.613853	88	156.852122426691				
229.011624	178.333333	184.215926946684				
229.409368	151	175.579706772262				
229.807084	118.666667	165.943460988817				
230.204774	130.333333	213.307191425566				
230.602436	164	216.004229253292				
231.00007	100	251.034575471995				
231.397677	166.666667	168.731562996284				
231.795257	150.333333	216.428525826158				
232.19281	183	260.458797961617				
232.590336	107.666667	129.489045402662				
232.987834	159	191.852600234683				
233.385305	126.333333	207.54946337229				
233.782748	150.666667	147.246300900875				
234.180165	165.333333	174.276448649652				
234.577554	124.333333	216.639903789407				
234.974915	100.666667	217.67000032014				
235.37225	103	196.033406071065				
235.769557	102.333333	214.396786212968				
236.166837	94.333333	185.760141660456				
236.564089	104	152.123471498921				
236.961315	119	179.82011055758				
237.358513	108	180.516724007216				
237.755684	120.333333	116.213313762437				
238.152827	62.666667	137.909876908636				
238.549944	91	228.939750275027				
238.947033	173	151.636264032397				
239.344095	102.333333	102.332753095351				
239.741129	112.666667	192.029217549283				
240.138137	130.333333	87.7256572234074				
240.535117	163.666667	152.75540528851				
240.93207	154.666667	111.785127659197				
241.328996	110	150.14815933547				
241.725894	131.666667	146.51116540272				
242.122765	179	149.207480775555				
242.519609	137	142.237103453976				
242.916426	141	156.933369437982				
243.313216	155	164.629609727573				
243.709978	94.333333	157.992491408142				
244.106713	119	168.688681394296				
244.503421	148.333333	97.3848476860346				
244.900102	36	92.7476552833589				
245.296755	139	140.777103271661				
245.693381	114	170.806527565548				
246.08998	123.333333	148.83592716502				
246.486552	128	209.198635070077				
246.883097	146.333333	178.56131828072				
247.279614	116.666667	203.59064188234				
247.676105	88	105.953275704154				
248.072568	138.666667	123.649217916944				
248.469004	118	138.34513443532				
248.865413	123.666667	121.374360259281				
249.261794	139	151.07022647422				
249.658148	145.666667	166.099401994743				
250.054476	89	183.46188673546				
250.450776	159	119.157678867155				
250.847049	78	121.520113304434				
251.243294	108	162.215855132691				
251.639513	101.666667	110.911574181141				
252.035704	74.333333	163.607266620569				
252.431868	109	132.636268365582				
252.828006	93.666667	106.331912330788				
253.224115	142	151.360863772363				
253.620198	137	153.389790434132				
254.016254	139	106.418693401485				
254.412282	164.333333	141.114236759817				
254.808284	90.666667	160.809757338341				
255.204258	141	155.838584307843				
255.600205	105	176.53405458293				
255.996125	91.666667	113.896166163602				
256.392018	121.333333	168.258253049859				
256.787883	143.333333	82.6203143270943				
257.183722	45	87.9823518245223				
257.579533	143	188.011029712928				
257.975317	92.666667	126.373016906919				
258.371075	146.666667	132.401647321102				
258.766805	161.666667	85.4302521262636				
259.162508	125	130.79216523701				
259.558183	157.333333	109.154052738734				
259.953832	133	112.015916460651				
260.349454	108.666667	114.877755488153				
260.745048	73.333333	124.572901906633				
261.140616	129.333333	113.934691545306				
261.536156	80.333333	108.296455574956				
261.931669	132.333333	173.658194910192				
262.327155	157	153.353242551012				
262.722614	77.333333	136.048266497418				
263.118046	105	141.74326474941				
263.513451	146.666667	104.438238306986				
263.908829	101.333333	133.133188170148				
264.30418	128.666667	132.161445338895				
264.699503	142.666667	133.52301089862				
265.0948	161	160.884552678537				
265.490069	97	134.579402849432				
265.885312	190	118.94089524052				
266.280527	154	124.969028022586				
266.675715	98	149.663804110237				
267.070877	95.666667	156.358555418081				
267.466011	163	145.719948116902				
267.861118	96.666667	110.414649121309				
268.256198	94.333333	117.442659431301				
268.651251	150	136.137311046878				
269.046277	122	131.83193896804				
269.441276	139.666667	101.526541194788				
269.836248	146	104.221118727121				
270.231193	130	145.24900556504				
270.62611	86.666667	152.943532793935				
271.021001	107.333333	119.638037243024				
271.415865	117.333333	113.665848997698				
271.810702	96	95.6936370579574				
272.205511	121	134.721399509194				
272.600294	125	123.415804180624				
272.99505	181.333333	127.776851157639				
273.389778	92	99.8045395256316				
273.78448	118.666667	97.8322031138175				
274.179154	109.666667	78.8598420929806				
274.573802	154	42.2207902923369				
274.968423	137.333333	84.2483807972784				
275.363016	54.666667	173.609278693197				
275.757583	115.666667	130.303485809309				
276.152122	86	46.997667316399				
276.546635	152	75.0251590436816				
276.941121	159.666667	87.3859590765496				
277.335579	90.666667	133.746733500395				
277.730011	114	48.7741511444333				
278.124416	142.666667	62.8015430940571				
278.518793	130.333333	115.828910434658				
278.913144	115.666667	96.8562539954524				
279.307468	106.333333	31.5502388618321				
279.701764	94	83.9108651191891				
280.096034	106.666667	59.2714675967392				
280.490277	90	69.2987123798746				
280.884493	107.333333	44.3259314685953				
281.278681	156.333333	91.0197929482932				
281.672843	154.333333	128.713629648185				
282.066978	149	75.740775653661				
282.461086	117	68.9345629647229				
282.855167	85	62.12832558137				
283.249221	119	58.4887305036023				
283.643248	118.666667	74.5157777314199				
284.037249	77.333333	78.2094671794307				
284.431222	176.666667	59.2364650184188				
284.825168	170	118.930104162992				
285.219087	156	102.623719613151				
285.61298	95	37.650643283503				
286.006845	84.666667	125.010875344832				
286.400684	124.333333	86.0377506263548				
286.794496	100.333333	38.0646012134624				
287.18828	128	120.758092191548				
287.582038	122.333333	90.4515593898259				
287.975769	88	105.81166889369				
288.369473	145.333333	52.1717537031384				
288.76315	128.666667	14.8651478181724				
289.1568	142.666667	23.8918492387919				
289.550423	145	49.5851939649965				
289.944019	148.333333	9.61184599678654				
290.337589	124.666667	77.6384752487696				
290.731131	123.666667	42.3317448917302				
291.124647	181	19.0249917548839				
291.518136	120.333333	49.718212923623				
291.911598	150	45.7447433979472				
292.305032	169.666667	88.1045812632487				
292.69844	135.666667	75.7977283487437				
293.091822	115	42.4908516544317				
293.485176	110.666667	69.5172833510971				
293.878503	67.666667	62.8770233533478				
294.271804	133	101.570072575792				
294.665077	153.666667	70.5964301892128				
295.058324	105.666667	0.622764022827255				
295.451544	127.666667	95.649072162027				
295.844737	85	37.3420236068119				
296.237903	90.666667	17.7016163571822				
296.631043	195.333333	-5.60548167225431				
297.024155	75.333333	58.4207286892864				
297.417241	121	26.7802482710205				
297.810299	102.333333	59.8064082437319				
298.203331	97	-6.16745456336355				
298.596336	133.333333	37.1919909351263				
298.989315	100.333333	25.5514126538094				
299.382266	95.666667	17.5774757634698				
299.77519	160.666667	17.2701801787155				
300.168088	93.333333	36.9628608141544				
300.560959	109.333333	66.3221837551786				
300.953803	78	5.68148200178803				
301.34662	90.666667	43.0407555539828				
301.73941	191.333333	64.4000044117628				
302.132174	190.666667	-21.5741035102641				
302.524911	90.666667	66.1184298732944				
302.917621	120.666667	8.47760556243827				
303.310304	105	-1.16324344283271				
303.70296	161.333333	43.1958828574817				
304.095589	90.333333	73.2216514633812				
304.488192	115	94.9140622894741				
304.880768	119	5.3073172083499				
305.273317	102.333333	77.0666546234139				
305.665839	143.666667	47.8259617374424				
306.058334	155	-4.08142644956467				
306.450803	79.666667	-24.3221768523837				
306.843245	105.333333	96.1037104437618				
307.23566	131	27.8629014388715				
307.628048	160.333333	32.6220641329458				
308.02041	101.333333	45.0478646112081				
308.412744	107.666667	39.8069677032112				
308.805052	114.666667	43.8993765794023				
309.197334	150.666667	33.3250902397814				
309.589588	106	19.7507735139014				
309.981815	115.333333	107.176427486986				
310.374016	135	-14.0646137557417				
310.76619	79.333333	71.6943157004953				
311.158338	130.333333	63.7865509409202				
311.550458	156.333333	3.87875579508579				
311.942552	133.666667	-9.02906856656034				
312.334619	118.666667	85.3964117707578				
312.726659	155	-21.8448031929596				
313.118673	129	80.2472856275111				
313.51066	187	91.6726791469462				
313.90262	110.666667	31.4313773653457				
314.294553	95.666667	30.8567122827096				
314.686459	114.666667	86.9486838990381				
315.078339	155.333333	28.0406282995544				
315.470192	153	86.4658763990352				
315.862019	66	55.8910962827041				
316.253818	140.333333	98.6496187801139				
316.645591	123.333333	69.0747800617115				
317.037337	123.666667	102.499912042274				
317.429057	136.666667	58.2583498070237				
317.820749	147.666667	101.350089185515				
318.212415	114	89.1084683481938				
318.604055	132.333333	66.8668182950607				
318.995667	98	21.9584718556687				
319.387253	156.333333	57.3834302004644				
319.778812	110	21.4750252442249				
320.170345	151	44.2332600721732				
320.56185	80.666667	24.3247965138623				
320.95333	83	-0.917026175036995				
321.344782	150	65.8411197498048				
321.736208	170.333333	93.9325714588342				
322.127607	123	10.3573268668283				
322.518979	123	62.448718973787				
322.910324	74.333333	75.5400827797098				
323.301643	139.333333	35.9647513698208				
323.692936	177.333333	45.7227247441197				
324.084201	147	51.8140017321595				
324.47544	132	55.9052505043873				
324.866652	114	82.3298029755795				
325.257838	78.666667	69.0876602309597				
325.648997	170	72.1788221853044				
326.040129	71.333333	58.9366208386135				
326.431234	121	28.0277241908871				
326.822313	145	109.118798327349				
327.213366	89.333333	96.8765122479981				
327.604391	121.666667	121.967527782389				
327.99539	101.666667	-7.60815089903303				
328.386362	118.666667	88.4828081185099				
328.777308	140.666667	77.9070719202406				
329.168227	134	108.664639420936				
329.559119	119.333333	74.0888446205956				
329.949985	109.333333	46.5130216044433				
330.340824	158.666667	64.2705032872555				
330.731637	112	24.3612887542556				
331.122422	114.666667	58.1187118349966				
331.513182	92.333333	41.8761067851491				
331.903914	107.333333	75.3001383490426				
332.29462	142.666667	87.390808697124				
332.685299	94.666667	34.1481157441699				
333.075952	102.666667	42.2387285754037				
333.466578	135.666667	113.329311105602				
333.857178	108.333333	70.7531994199884				
334.247751	54.666667	53.8437254333392				
334.638297	117.333333	-0.732444854345658				
335.028816	114	73.3580225569339				
335.419309	129.666667	75.7817947524014				
335.809776	87	42.8722047320572				
336.200216	134.666667	46.2959194106771				
336.590629	90.333333	122.052938788261				
336.981016	113	51.476595950034				
337.371376	149.666667	48.5668898107709				
337.761709	127.666667	28.3238223704723				
338.152016	132.333333	25.0807257143616				
338.542297	104.333333	62.5042678424389				
338.93255	140	44.2611125842571				
339.322777	149.333333	28.0179301102633				
339.712978	155.666667	61.7747184204575				
340.103152	141.666667	73.5314774296162				
340.4933	167	81.6215422229627				
340.88342	61.333333	31.0449096300501				
341.273515	148	89.8015829065492				
341.663583	141.333333	11.2248938820128				
342.053624	86.333333	29.6481755564407				
342.443638	180	24.4047619298329				
342.833627	75.666667	106.494653172637				
343.223588	97	55.5845150291816				
343.613523	151.666667	32.6743486699144				
344.003432	145.666667	95.4308200948351				
344.393314	108	37.8539292187203				
344.783169	181.666667	46.27700904157				
345.172998	117.333333	53.7000606486076				
345.5628	140.333333	77.7897499546095				
345.952576	165	85.2127440447996				
346.342325	69.333333	136.302374833954				
346.732048	180.666667	71.7253114072967				
347.121744	131.666667	52.4815526796035				
347.511414	136.333333	59.5710977360984				
347.901057	135.666667	59.6606144915577				
348.290674	120.666667	45.4167690312051				
348.680264	105.666667	103.506228269817				
349.069827	187	122.928991207393				
349.459365	210	101.018394014381				
349.848875	86.333333	109.774432435109				
350.238359	159.333333	-1.80289035997396				
350.627817	162	109.286425629131				
351.017248	126.666667	68.3757113171997				
351.406653	159	77.1316367894566				
351.796031	170.333333	62.5541989606782				
352.185382	160.666667	95.310064830864				
352.574708	107.333333	125.732570570461				
352.964006	113	34.1550459237998				
353.353278	118	83.9108260613261				
353.742524	72.666667	75.9999119830404				
354.131743	102.333333	128.088968603719				
354.520936	170.333333	52.177996008586				
354.910102	149	73.266995112417				
355.299242	104	112.355966000436				
355.688355	163.666667	74.1115735874198				
356.077442	163	21.5338199585914				
356.466503	170.333333	66.956038113951				
356.855537	148.666667	93.0448939682749				
357.244544	146	145.467053521563				
357.633525	195.666667	85.8891848590398				
358.02248	153.666667	136.977953980704				
358.411408	151.333333	41.0666948013331				
358.80031	144.666667	122.15540740615				
359.189185	134	124.244089709931				
359.578034	168	132.6660777979				
359.966856	168.333333	79.7547035848341				
360.355652	122.333333	150.843301155956				
360.744422	178	54.9318695112655				
361.133165	143	77.0204095655397				
361.521881	128.333333	123.775586318778				
361.910571	204.666667	106.197401856205				
362.299235	142	75.9525231778192				
362.687873	190	100.374282283622				
363.076484	152	129.796012088389				
363.465068	161.666667	93.8843785921201				
363.853626	181.333333	153.639384880039				
364.242158	199.666667	86.7276949521469				
364.630663	199.333333	94.1493097232187				
365.019142	137.666667	193.904230278478				
365.407595	213	124.992454617926				
365.796021	126.666667	151.747317656338				
366.184421	216.666667	114.835484478939				
366.572794	213.333333	152.590290000503				
366.961141	244	111.678399306256				
367.349461	180.333333	148.433147310973				
367.737755	167	169.187866099878				
368.126023	186	130.942556672971				
368.514265	221.333333	172.363886030252				
368.90248	220	224.118520086497				
369.290668	210.666667	155.539790841707				
369.67883	195	153.961033381105				
370.066966	214.666667	134.715580704691				
370.455076	217	158.470099812465				
370.843159	243.666667	182.891256619203				
371.231216	174.333333	173.645719210129				
371.619246	174.666667	191.06681850002				
372.00725	189.333333	215.821222574099				
372.395228	216	152.242265432365				
372.783179	194.333333	162.996611989597				
373.171104	228	119.084264331016				
373.559003	282.666667	176.171888456623				
373.946875	196.333333	185.926149281194				
374.334721	244.666667	205.013715889954				
374.722541	218	205.434587282901				
375.110334	254	180.855429374813				
375.498101	313.666667	183.609576250913				
375.885842	215.333333	142.363694911201				
376.273556	198.333333	207.784451270453				
376.661244	248	184.205179413894				
377.048906	249.333333	187.292546341522				
377.436541	300.333333	211.046549968115				
377.82415	260.333333	243.800526378895				
378.211733	237.333333	220.221140573864				
378.599289	240.666667	224.641725467797				
378.986819	338	206.062282145919				
379.374323	338.666667	193.482810608228				
379.7618	221.333333	202.236642769501				
380.149251	301	222.323780714963				
380.536676	323.666667	234.744223444612				
380.924075	336.333333	138.83130395845				
381.311447	339.333333	236.918356171252				
381.698793	266.666667	152.672046168242				
382.086112	345	173.425707864196				
382.473406	392	238.512674429562				
382.860673	326.666667	172.599612693892				
383.247914	354.333333	183.019855742411				
383.635128	329.333333	249.773402489894				
384.022316	311	224.860255021564				
384.409478	387	153.947079337423				
384.796614	367	242.70054143747				
385.183723	374.666667	181.787308236481				
385.570806	426.333333	155.87404581968				
385.957863	412	192.960756187067				
386.344894	414.333333	124.380771338642				
386.731898	351.666667	215.800757189182				
387.118876	326.333333	156.220714823909				
387.505828	423.333333	218.307311242825				
387.892754	451.666667	178.060545445928				
388.279653	415.666667	123.813750347996				
388.666526	399.666667	175.233594034252				
389.053373	448	237.653409504696				
389.440193	418.666667	229.073195674105				
389.826988	423.666667	163.826288712924				
390.213756	416	171.579351450709				
390.600498	456	172.662237966874				
390.987213	436.666667	258.702639447123				
391.373903	461.666667	243.076350766461				
391.760566	542.666667	224.783369992013				
392.147203	419.666667	266.823696090218				
392.533814	513.333333	218.530665061074				
392.920398	537	195.570939938145				
393.306956	528	244.611190687868				
393.693489	452.333333	206.98475027668				
394.079994	481.666667	329.02494980527				
394.466474	417.333333	216.065124172948				
394.852927	491.666667	247.438606446841				
395.239355	399.666667	272.812064559823				
395.625756	485.666667	227.85216357902				
396.012131	442	230.892237470869				
396.398479	515.666667	269.598951268933				
396.784802	372.333333	273.972307906085				
397.171098	420	277.345638449452				
397.557368	501.666667	288.052276865472				
397.943612	480.666667	255.092224154142				
398.32983	476.666667	261.465479315465				
398.716021	456.666667	315.838708383003				
399.102186	478.666667	270.211912323192				
399.488325	484.666667	280.918424136034				
399.874438	402	316.958244821527				
400.260525	441.333333	300.331373379672				
400.646586	434	351.371143810468				
401.03262	410.666667	287.74422114748				
401.418629	434.666667	299.11727432358				
401.804611	338.333333	355.823634405895				
402.190567	370	341.863303360862				
402.576497	399.333333	362.569613188481				
402.9624	400.333333	400.275896922315				
403.348278	386.666667	347.982157495237				
403.734129	391.666667	351.688390974374				
404.119954	371.333333	361.727933326163				
404.505754	342.333333	346.767450517041				
404.891526	330.333333	345.806941647697				
405.277273	372.666667	347.513074617441				
405.662994	308	393.219183459837				
406.048688	332.666667	360.258598208448				
406.434357	247.666667	309.297989796148				
406.819999	311.333333	387.337355290063				
407.205615	296.666667	364.710028656629				
407.591205	290	411.082676895847				
407.976769	327	409.788633007717				
408.362307	288.666667	384.494563992239				
408.747819	281	401.200470849412				
409.133304	272	398.573017612801				
409.518764	228.666667	444.612206215278				
409.904197	332.333333	431.98470272397				
410.289604	217	454.690508105314				
410.674985	253.333333	445.72962035931				
411.06034	267.666667	451.102041485957				
411.445669	238.666667	470.474437485256				
411.830972	279	428.180142357207				
412.216249	229.666667	466.219154101809				
412.601499	215.333333	452.258140752627				
412.986724	281.333333	489.963769242533				
413.371923	268	469.669373605091				
413.757095	232.333333	456.708283873864				
414.142241	249.666667	531.747170015288				
414.527361	229	520.119364029365				
414.912456	220	536.491533882529				
415.297524	227	554.197010641909				
415.682566	208	554.902463273941				
416.067582	233.666667	490.274556778624				
416.452572	168.333333	553.979958155959				
416.837535	223.333333	580.018667439509				
417.222473	191.333333	543.724018562148				
417.607385	232.666667	594.429344557438				
417.99227	207.666667	580.134645458944				
418.37713	260	605.506588199537				
418.761964	211.333333	584.211838812783				
419.146771	210	608.583730332243				
419.531553	204.666667	581.955597690792				
419.916308	173	651.660771955557				
420.301037	197.333333	602.699255092972				
420.685741	183.333333	579.404380069476				
421.070418	187	587.442812952196				
421.455069	184.666667	638.147886707567				
421.839694	199	562.18626933559				
422.224294	175.666667	671.557960802701				
422.608867	203.333333	652.929626176027				
422.993414	99.666667	654.634599422005				
423.377935	174.333333	630.339548540635				
423.76243	170.333333	614.044471531916				
424.146899	160.666667	644.749369395849				
424.531343	236	663.120910098871				
424.91576	179.666667	649.492424708107				
425.300151	209.666667	630.530581189996				
425.684516	193	728.235378544536				
426.068855	191	669.606817771727				
426.453168	148.666667	692.311565871571				
426.837455	189	721.016287844066				
427.221716	125	767.387651689213				
427.605951	170.666667	698.758990407012				
427.99016	129.666667	715.463636997463				
428.374343	164.666667	749.501592460565				
428.758501	162	685.206189762755				
429.142632	148	736.244094971161				
429.526737	155.666667	835.615308052218				
429.910816	202	786.319829005927				
430.294869	123	705.690991832288				
430.678897	163	802.062130497737				
431.062898	145.666667	794.433243069401				
431.446873	118.666667	779.137664513717				
431.830822	180	723.842059830685				
432.214746	225	818.546430986741				
432.598643	125.333333	712.250777049012				
432.982515	182.666667	794.955097950372				
433.36636	149.333333	753.326059757947				
433.75018	123	847.696997404609				
434.133973	142.666667	813.067908957487				
434.517741	138	790.105463349454				
434.901483	136.666667	761.809658614072				
435.285199	84.666667	841.180495751342				
435.668889	147	828.551307761263				
436.052552	105.333333	793.9220936774				
436.43619	165	822.959522432625				
436.819802	168.333333	756.996925060502				
437.203389	117	780.034304527467				
437.586949	151	747.404990900647				
437.970483	168.666667	806.108985146479				
438.353991	188	785.146288264962				
438.737474	149	801.516900222534				
439.12093	101.333333	770.554153086321				
439.504361	133.333333	770.591380789197				
439.887766	167	765.961917364723				
440.271144	140.333333	752.332427846466				
440.654497	163	740.369581167296				
441.037824	130.333333	732.740042360778				
441.421125	134	822.777145426912				
441.8044	103	761.480889365698				
442.18765	134	779.517943143572				
442.570873	121.333333	751.221636827661				
442.954071	134.666667	764.925306350838				
443.337242	92	748.628950780231				
443.720388	169	753.999237048712				
444.103508	128.666667	769.369498189844				
444.486602	130	702.739734203628				
444.86967	84	710.443278090065				
445.252712	101.666667	752.146796849152				
445.635728	153.666667	727.516957480892				
446.018719	89	738.887093951719				
446.401683	120.333333	721.257204328762				
446.784622	141.333333	707.293957544893				
447.167535	62.333333	690.997351633676				
447.550422	105.666667	682.700721595111				
447.933283	92.666667	710.404065429197				
448.316118	-357.666667	693.107384135935				
448.698928	-258	734.477345681761				
449.081711	104.666667	684.847281133803				
449.464469	178.666667	679.550526424932				
449.847201	144	630.920412588714				
450.229907	114	667.623606625147				
450.612587	134.333333	648.326775534232				
450.995241	138.666667	643.363253315968				
451.37787	145.666667	659.733039936793				
451.760473	202.333333	650.102801430269				
452.143049	73.666667	630.472536829961				
452.5256	127.666667	535.508915068741				
452.908126	85.333333	651.211935146609				
453.290625	161.333333	618.914929130693				
453.673099	99	606.951232953864				
454.055546	104	610.654176683251				
454.437968	120.666667	622.690430251726				
454.820364	122.666667	572.393324692853				
455.202735	71.333333	579.096195973068				
455.585079	94.333333	476.465707159499				
455.967398	175.666667	558.501860185017				
456.349691	128	562.871322083187				
456.731958	177	579.907425854009				
457.114199	137.666667	535.610170497483				
457.496414	83	535.312891013608				
457.878604	142.666667	477.682253368822				
458.260768	207	518.718256596687				
458.642906	102	469.087568697204				
459.025018	148.666667	515.790189670373				
459.407105	131	468.15945248263				
459.789166	137	446.528690167539				
460.171201	155.666667	452.897902725099				
460.55321	120.333333	444.600423155311				
460.935193	141	402.969585458175				
461.317151	137.666667	354.005390600127				
461.699083	82.666667	450.374503614731				
462.080989	78.333333	375.410257501987				
462.462869	123.333333	339.779320261894				
462.844724	133.333333	343.48169286089				
463.226553	115	376.517372332537				
463.608356	136.333333	360.886360676836				
463.990133	110.666667	389.588657893786				
464.371885	123.333333	313.957596949825				
464.753611	147.333333	288.659843878516				
465.135311	175.333333	333.695399679858				
465.516985	85.333333	318.397596353852				
465.898634	138	306.099768866935				
466.280256	85.333333	355.135249286232				
466.661854	135	243.504039511055				
467.043425	102	240.539470642092				
467.424971	130	322.908210612218				
467.806491	66.666667	275.943591454995				
468.187985	101.666667	279.645615170424				
468.569453	132.666667	345.347612758505				
468.950896	89.333333	280.716253185674				
469.332313	97.666667	291.418201485495				
469.713704	116.666667	244.453458657967				
470.09507	139.666667	256.488691669528				
470.47641	121	241.190565553741				
470.857724	116	239.559081310605				
471.239012	144.666667	169.927571940121				
471.620275	166.333333	218.629371408725				
472.001512	150.333333	169.664479749981				
472.382724	128	235.032896930325				
472.763909	158.333333	247.401288016884				
473.145069	108	212.102987942531				
473.526204	139	221.137997707267				
473.907312	137.666667	163.839647378218				
474.288395	141.666667	180.207939888257				
474.669452	75.666667	193.576207270948				
475.050484	86.333333	162.277784492727				
475.43149	191.333333	134.979335587158				
475.81247	110.666667	149.347528554241				
476.193425	100.333333	158.049030360411				
476.574353	133	117.417173072797				
476.955257	123.333333	130.451959590708				
477.336134	138.666667	149.820053014834				
477.716986	226	153.188122278048				
478.097812	148.333333	141.889499413914				
478.478613	127	184.590853388868				
478.859388	153.333333	130.625514236474				
479.240137	128.333333	153.993483956731				
479.62086	154.333333	205.028095549641				
480.001558	75.333333	70.0626829816379				
480.382231	157	116.097245252724				
480.762877	173	184.465115430025				
481.143498	145.666667	94.8329614464137				
481.524094	160.666667	102.867450301891				
481.904663	175.333333	82.5685790635836				
482.285207	216.666667	103.936350664364				
482.665726	109.333333	66.3040981042334				
483.046219	90	131.005154416754				
483.426686	187.666667	61.0395176019265				
483.807127	127.666667	100.073856659751				
484.187543	169.666667	102.441504556663				
484.567934	152	111.142461292664				
484.948298	106	41.8433929348794				
485.328637	78.666667	59.5442994161834				
485.708951	194	76.2451817365757				
486.089239	237	96.6127059296197				
486.469501	166.666667	91.3135389953152				
486.849738	205.333333	94.3476799000991				
487.229949	150.666667	63.7151296775348				
487.610134	150	64.0825543276221				
487.990294	173	96.1166218167976				
488.370428	178.666667	39.817330178625				
488.750537	171	28.1846813795405				
489.13062	148	49.8853414531077				
489.510678	201.666667	67.9193093657631				
489.890709	136	60.6199191846337				
490.270716	157.666667	79.987171809029				
490.650697	231	76.6877323060761				
491.030652	193.333333	95.388267675775				
491.410581	184.666667	41.7554449181255				
491.790485	168	77.4559319995642				
492.170364	197.333333	99.1563939200911				
492.550217	208.666667	128.19016471327				
492.930044	179.666667	58.8905763791001				
493.309846	163.333333	37.9242978840186				
493.689622	147.666667	47.624660261589				
494.069373	121.666667	61.9916654782476				
494.449098	178.666667	53.3586455675578				
494.828797	194.333333	100.72560052952				
495.208471	178	46.7591983305699				
495.58812	213	85.1261049707084				
495.967743	217.333333	43.1596524834986				
496.34734	163	55.5265088689404				
496.726912	214	50.8933410934704				
497.106458	188.666667	57.5934821906521				
497.485979	142.333333	18.6269311269222				
497.865474	190	23.6603559358439				
498.244944	241	35.0270895838537				
498.624388	194.333333	27.3937981045154				
499.003806	170.666667	38.7604814978288				
499.383199	256.666667	-22.5395262697697				
499.762567	159.666667	4.16044280172002				
500.141909	244	29.8603857458615				
500.521226	238.333333	66.2269715290913				
500.900517	228.333333	66.9268651849727				
501.279782	241.333333	91.6267347135058				
501.659022	218.666667	98.3265790811272				
502.038237	288	76.6930662878367				
502.417426	265.333333	52.726195367198				
502.796589	287.333333	76.4259653192111				
503.175727	273	29.4590451103122				
503.55484	251.666667	55.4920997405018				
503.933927	310.666667	21.5251302433428				
504.312988	350	36.2248016188358				
504.692024	296	89.5911158334169				
505.071035	289.666667	44.6240728870861				
505.45002	337.333333	71.3236708134071				
505.828979	293.666667	70.3565776123799				
506.207913	362.666667	34.7227932504408				
506.586822	427.666667	17.7556517275899				
506.965705	357.666667	61.7884840773909				
507.344563	346.333333	13.1546262662799				
507.723395	393	30.8540773278206				
508.102202	409.666667	29.2201702284497				
508.480983	397.666667	66.9195710017304				
508.859739	315	17.6189476140994				
509.238469	418.666667	71.98496609912				
509.617174	423.333333	80.3509604232289				
509.995853	446.666667	35.7169296199895				
510.374507	390	100.749541655838				
510.753136	414.666667	24.7821295307753				
511.131739	492.666667	46.814691278364				
511.510317	493.333333	91.5138968650408				
511.888869	452	28.2130763243696				
512.267396	484	25.9122316227864				
512.645897	382	62.278028793855				
513.024373	491.666667	51.9771358040117				
513.402823	428	30.3428836868203				
513.781248	531.666667	38.3752734087171				
514.159648	444	71.0743069697019				
514.538022	436.666667	50.4399814033386				
514.916371	430.666667	-21.8610353239365				
515.294694	450.666667	66.1712568214401				
515.672992	502.666667	8.87019080590483				
516.051265	482	60.5691006294578				
516.429512	411.666667	3.26798632566255				
516.807733	405.666667	25.6335128945189				
517.18593	431	22.9990162689001				
517.564101	460.666667	31.7362535156227				
517.942246	467.666667	1.83860463029379				
518.320366	414.666667	41.6075929409272				
518.698461	458.333333	42.7098864475228				
519.07653	379.333333	-8.52118400208076				
519.454574	449.666667	40.5810507442777				
519.832592	398.333333	42.683254534437				
520.210586	342.333333	34.1187646727201				
520.588553	430.333333	17.2209107026422				
520.966496	387.333333	63.6563620806882				
521.344413	413	38.7584505025347				
521.722304	437	-13.8061580318179				
522.10017	433	75.6292046297917				
522.478011	433.666667	34.3978714873635				
522.855827	458.666667	50.4998435408974				
523.233617	361	75.9351186382321				
523.611381	356.666667	40.0370297793676				
523.989121	282.666667	51.8055812686266				
524.366835	263	55.5741018016866				
524.744523	350	74.675926378547				
525.122187	289.666667	68.1110563035314				
525.499824	353	7.21282112015484				
525.877437	308.666667	12.9812262849021				
526.255024	347.333333	53.0829334934501				
526.632586	373.666667	45.85127989796				
527.010123	315	80.6195964984325				
527.387634	302	64.7212171427055				
527.76512	347	15.1561419829409				
528.14258	348	85.5910368669767				
528.520015	321.333333	84.0259029469749				
528.897425	283.333333	111.127406222935				
529.27481	288	64.2288816948581				
529.652169	256	97.9969932105814				
530.029503	294	27.098409922267				
530.406811	327.333333	-16.4668703222467				
530.784095	312.666667	77.3011547813633				
531.161352	210	90.0691497766124				
531.538585	232.333333	127.503783119985				
531.915792	310.666667	12.2717195071591				
532.292974	248.333333	39.3729610902949				
532.670131	171.666667	101.807506869393				
533.047262	260.333333	4.24202269229193				
533.424368	183	57.3431757111528				
533.801449	202.666667	127.777633925976				
534.178504	230	83.5453961846				
534.555535	204.666667	58.9797967913476				
534.932539	320.666667	91.4141662897345				
535.309519	195	72.5151741362452				
535.686473	182.333333	53.2828200265564				
536.063402	235.333333	46.38376911283				
536.440306	256.666667	93.8180233950657				
536.817184	205.333333	76.5855817211021				
537.194038	179.333333	80.0197783952622				
537.570865	250.333333	115.787276961062				
537.947668	216.333333	63.2214148749848				
538.324445	188.333333	12.9888558327085				
538.701197	259.333333	113.422934986395				
539.077924	231	74.5236523360429				
539.454626	177	68.6243408816532				
539.831302	203.333333	64.7249984710646				
540.207953	214.666667	84.8256282564378				
540.584579	157	87.5928952377735				
540.961179	177.333333	82.3601332629098				
541.337755	185	98.7940096361698				
541.714305	193.666667	84.5611890532306				
542.090829	141.333333	89.3283385140921				
542.467329	197	165.095461323077				
542.843803	180.666667	62.1958861758632				
543.220252	186	97.6296162246113				
543.596676	194.666667	123.729984469322				
543.973074	166	84.1636557578327				
544.349448	152.333333	109.263966394467				
544.725796	124	61.0309130749029				
545.102119	172	126.464497951301				
545.478416	124	116.564719871499				
545.854689	120	144.998247139821				
546.230936	213.333333	82.765077451944				
546.607158	155	97.5318789600291				
546.983355	132	146.965318664076				
547.359526	127	93.0653954119243				
547.735673	169.666667	114.165444507896				
548.111794	215	100.598796647668				
548.48789	178.333333	139.365452983403				
548.86396	204.333333	174.798746362939				
549.240006	130	98.2320120905976				
549.616026	191	80.6652478620574				
549.992021	135.333333	198.431787829479				
550.367991	182.666667	93.5316329928635				
550.743936	139.666667	139.63144935221				
551.119856	137.666667	114.397902907519				
551.49575	196	113.164326506628				
551.871619	146.333333	131.9307223017				
552.247463	196.333333	148.363755292733				
552.623282	194	161.13009247973				
552.999076	161.333333	144.563067862688				
553.374844	146	164.329346289447				
553.750587	200.666667	169.428929912168				
554.126305	165	190.861817730851				
554.501998	160.666667	119.628009745497				
554.877666	212.333333	211.060839956105				
555.253309	136.666667	152.160308362675				
555.628926	200.333333	213.926412813046				
556.004519	191.333333	181.35915661154				
556.380086	142.666667	199.791870453835				
556.755628	175	164.557889492093				
557.131145	142.333333	181.323878726312				
557.506636	142.666667	158.423172004333				
557.882103	168.666667	159.855770630477				
558.257544	134.666667	143.955005300422				
558.632961	95.666667	177.72088031849				
559.008352	140.666667	218.486724380359				
559.383718	152.666667	196.585873638191				
559.759059	130.666667	171.018327091984				
560.134374	151.333333	158.784083589579				
560.509665	148.666667	206.549812435297				
560.884931	162.666667	172.982179476977				
561.260171	128.666667	254.414516562458				
561.635386	189	170.180158843901				
562.010576	118.333333	185.279104321307				
562.385741	223.666667	264.711354994675				
562.760881	115.333333	231.143576864004				
563.135996	103.666667	206.575769929296				
563.511086	110	189.674601190551				
563.88615	134	236.440068495606				
564.26119	147.333333	175.205509148785				
564.636204	162.333333	245.637585845764				
565.011193	131	218.069633738706				
565.386157	152.333333	257.83498582761				
565.761097	130.333333	249.600310264637				
566.13601	124.666667	244.032270593304				
566.510899	137.666667	229.464203270095				
566.885763	150	216.562774142848				
567.260602	169.666667	272.661316211562				
567.635416	127.333333	282.42649547624				
568.010204	105.333333	224.524978784718				
568.384968	191.333333	297.290100441319				
568.759706	204.333333	284.055192141722				
569.134419	114.333333	259.820256038086				
569.509108	138.333333	247.251958282575				
569.883771	160	217.016963570864				
570.258409	110	214.781940055115				
570.633022	136	198.213554735328				
571.00761	145.333333	199.311807611504				
571.382173	94.333333	328.743364683642				
571.756711	206	318.841559951742				
572.131224	197	239.939725415804				
572.505711	77.666667	265.704528923667				
572.880174	179	263.802636779654				
573.254612	122	280.234049831603				
573.629024	195.333333	291.998766927353				
574.003412	130.333333	235.763455371226				
574.377775	151.333333	255.194782011062				
574.752112	181.333333	276.292745694698				
575.126425	177	244.390680726459				
575.500712	138	316.155253802019				
575.874974	126.333333	280.253130073542				
576.249212	136	288.350979693189				
576.623424	108	304.782132356636				
576.997612	134.333333	315.213257368208				
577.371774	109	314.97768542358				
577.745911	190.666667	279.742085674914				
578.120023	148.333333	335.17312312221				
578.494111	104	271.93746591763				
578.868173	129.666667	264.701778756851				
579.24221	201	282.466063792034				
579.616223	111	295.563653175341				
579.99021	174.333333	281.661213602448				
580.364172	131.666667	326.425411225518				
580.738109	186.333333	310.856247044549				
581.112022	192.333333	299.953722211705				
581.485909	174.333333	345.717833422661				
581.859771	166.333333	386.14858282958				
582.233608	144.333333	310.912637432461				
582.607421	154.666667	297.009996383465				
582.981208	156.333333	290.44065937827				
583.35497	127.666667	314.204627569038				
583.728708	170	324.301900107929				
584.10242	173	309.399143690621				
584.476107	129.333333	289.163024469275				
584.84977	176.666667	368.593544596052				
585.223407	127.333333	391.357368766631				
585.59702	141.333333	347.454497285333				
585.970607	144.666667	370.551596847836				
586.34417	134.666667	386.648668758463				
586.717707	189.666667	394.74570971289				
587.09122	134	383.842724015441				
587.464708	135.666667	413.273042513954				
587.838171	204.333333	390.36999920843				
588.211608	224.666667	380.800258946706				
588.585021	168.333333	433.230491033106				
588.958409	193.333333	440.327360315468				
589.331772	160.333333	444.424201793793				
589.70511	210.333333	494.854347468079				
590.078423	152.666667	474.951131338328				
590.451711	103.666667	447.381219404539				
590.824974	111.666667	444.477944666713				
591.198213	113	461.57464327701				
591.571426	155.333333	464.671311931107				
591.944614	189.333333	412.434617781167				
592.317778	148	427.531229979351				
592.690916	181.666667	425.627811221335				
593.06403	137.666667	466.057698811443				
593.437119	183.666667	425.154224597514				
593.810183	191.666667	435.917387579546				
594.183221	192	437.013854605379				
594.556235	108	447.776959979336				
594.929225	175.333333	497.206704701417				
595.302189	122.333333	518.303086467299				
595.675128	174	465.732772429142				
596.048042	132.333333	521.829096586948				
596.420932	140	517.258726092878				
596.793796	179.333333	436.354991642608				
597.166636	198	472.784563540462				
597.539451	156.666667	554.880773634278				
597.912241	189.333333	475.976954924057				
598.285006	210.333333	499.739773409797				
598.657746	254.666667	558.8358970915				
599.030461	134	481.265324969165				
599.403152	207.666667	441.694725194954				
599.775817	135.333333	497.457428464544				
600.148458	149.333333	503.553438082257				
600.521073	207.333333	507.982750743771				
600.893664	143	480.412035753409				
601.26623	123.666667	483.174624959009				
601.638771	208	497.603852360571				
602.011288	145.666667	477.699719110257				
602.383779	161.333333	582.128888903743				
602.756246	141.666667	630.558031045354				
603.128687	200.666667	533.653809230765				
603.501104	231.666667	514.0828937643				
603.873496	151.333333	485.178616493796				
604.245863	140.666667	498.607643419256				
604.618206	185	542.703309692839				
604.990523	102	549.132279010222				
605.362816	125.333333	549.561220675729				
605.735084	217	570.990133537199				
606.107326	249.666667	502.085682442469				
606.479545	248.666667	560.181205848025				
606.851738	173.333333	592.276699297381				
607.223906	119.333333	503.0388299427				
607.59605	177	537.467599936142				
607.968169	242.666667	563.229674125546				
608.340263	237.333333	515.325053510913				
608.712332	181.666667	527.753737092242				
609.084376	223	471.849058869533				
609.456396	203	538.277685994948				
609.82839	204.666667	500.372949164163				
610.20036	251.666667	542.801518681502				
610.572305	208.666667	513.230059394804				
610.944226	202.666667	593.991906456229				
611.316121	173	514.753722561455				
611.687992	233.666667	544.848845014805				
612.059838	258.666667	514.277271664116				
612.431659	188	519.37233550939				
612.803455	203.333333	484.467371550627				
613.175227	215.333333	502.895712939987				
613.546973	241.333333	513.324024373147				
613.918695	248	454.752308154432				
614.290393	238	479.51389728384				
614.662065	277.333333	439.275457457049				
615.033712	181	488.03698782622				
615.405335	284.333333	512.131824543515				
615.776933	222.333333	453.559965456772				
616.148507	252.666667	445.321411718153				
616.520055	229.333333	541.416162023334				
616.891579	275	777.510883676639				
617.263078	278	486.605577525907				
617.634552	252.333333	450.033575571136				
618.006001	299	396.461544812328				
618.377426	323.333333	449.556153401644				
618.748826	329.666667	396.317399186922				
619.120201	236	419.078616168162				
619.491552	265.333333	377.839806497525				
619.862877	283.666667	432.93429887069				
620.234178	288.666667	377.362097591978				
620.605454	328	352.789867509229				
620.976706	307	312.884276774603				
621.347932	377.333333	384.645322083778				
621.719134	260.666667	394.739673741076				
622.090312	300.333333	334.500663746499				
622.461464	345.666667	258.594957795722				
622.832592	319	314.689224193068				
623.203695	303.333333	391.116794786377				
623.574773	368.666667	298.544336575649				
623.945827	314	325.638516713044				
624.316856	328.666667	318.399336046401				
624.68786	358	292.16012557572				
625.058839	366.333333	286.254220301002				
625.429794	414	224.681620374407				
625.800724	423	254.775657643774				
626.171629	363	266.536334109104				
626.54251	404	227.963648922558				
626.913366	458.666667	294.057600931973				
627.284197	361	272.484858137351				
627.655003	492.666667	246.245420538691				
628.025785	461.666667	214.005954288155				
628.396542	471.666667	270.433126233581				
628.767275	434.666667	297.193603527131				
629.137982	443.666667	178.954051864482				
629.508665	432	233.381138549956				
629.879324	461	247.474863583554				
630.249957	593	218.568559660953				
630.620566	490.333333	266.662228086475				
630.991151	493.666667	223.089201860121				
631.36171	529	226.849478677568				
631.732245	569	216.609727843139				
632.102755	551.666667	161.703282204672				
632.473241	562	140.130141914328				
632.843702	559.333333	219.223639819947				
633.214138	602.333333	273.983774921528				
633.58455	531.333333	205.743882371233				
633.954937	624.666667	227.837295016899				
634.325299	642.333333	150.264011858529				
634.695637	669.666667	176.024034048282				
635.06595	638	230.450694433997				
635.436238	688.666667	198.543993015674				
635.806502	711.666667	162.303929945475				
636.176741	716.333333	162.063839071238				
636.546955	687.666667	184.823718392964				
636.917145	726	183.250237062813				
637.28731	758.666667	182.676726928624				
637.657451	807	181.103189142559				
638.027566	712.333333	218.862954400295				
638.397658	745.666667	155.622694158316				
638.767724	707.333333	131.715735960138				
639.137766	751	206.808751110084				
639.507784	750.333333	156.568404608153				
639.877776	728.666667	135.328029150023				
640.247744	683	150.420958040017				
640.617688	791.333333	174.513860278134				
640.987607	731	174.273399712214				
641.357501	756.666667	169.032911342256				
641.727371	710.666667	131.792394320421				
642.097216	750.333333	189.885182494549				
642.467036	697.666667	142.311274864639				
642.836832	686.666667	125.070672582853				
643.206603	722.333333	76.496708497029				
643.57635	752.333333	145.589383759329				
643.946072	721.333333	150.348696217591				
644.315769	631	204.107979871815				
644.685442	667	136.533902874163				
645.055091	669.333333	138.959798224634				
645.424714	658	138.718997618907				
645.794313	653.666667	156.478168361303				
646.163888	678.333333	105.237311451823				
646.533438	559	117.996426738305				
646.902963	594.333333	124.755512220749				
647.272464	624.666667	106.181237051317				
647.64194	587.333333	159.940266077847				
648.011392	592	126.365934452501				
648.380819	471.333333	138.791574023117				
648.750221	543.666667	81.8838517896954				
649.119599	527	102.976101904397				
649.488953	502.666667	135.734990367223				
649.858282	544.666667	140.160517026011				
650.227586	532.333333	121.586014880761				
650.596866	557	112.344818083635				
650.966121	486	123.103593482472				
651.335351	436.666667	123.52900607727				
651.704557	435	86.2877240201923				
652.073739	485.333333	105.713081311238				
652.442896	464	137.805076798246				
652.812028	482	99.2303764812166				
653.181136	374.333333	54.9889815123106				
653.55022	414.666667	74.4142258915283				
653.919278	402.333333	81.8394403145468				
654.288313	380.666667	107.264628237851				
654.657323	428	147.689787357116				
655.026308	390	50.1149176723445				
655.395269	351	113.540020335696				
655.764205	378	145.965094195011				
656.133116	367	96.7234722502869				
656.502004	348	87.8151578058486				
656.870866	396.333333	114.240146405211				
657.239704	313	26.6651073526967				
657.608518	310.333333	122.756707648307				
657.977307	293.333333	81.1816121398784				
658.346072	297.666667	72.6064889795742				
658.714812	319	74.0313370152321				
659.083528	307	22.4561573990136				
659.452219	350	96.8809489787575				
659.820885	278.666667	87.6390447544636				
660.189528	256.333333	68.0637810304549				
660.558145	270	122.155154350247				
660.926738	320	107.579833018163				
661.295307	312	64.6711500342021				
661.663851	274	107.429106246204				
662.032371	300.666667	126.187033806329				
662.400866	251.666667	69.9449325624168				
662.769337	235.666667	134.369470666628				
663.137783	234.333333	6.79397996680183				
663.506205	234.333333	64.8851286150992				
663.874602	254	77.9762484593587				
664.242975	174.666667	66.067339651742				
664.611324	337.333333	116.825071192249				
664.979648	245.666667	89.5827729287182				
665.347947	224.666667	70.3404458611496				
665.716222	258.333333	105.764758141705				
666.084473	229.666667	16.1890427703837				
666.452699	209	54.9466325950249				
666.8209	231.333333	54.0375256156282				
667.189078	179	94.4617261365167				
667.55723	212	73.5525637012061				
667.925359	179	112.310040766181				
668.293463	196.333333	84.4008230271173				
668.661542	204.333333	77.4915764840164				
669.029597	230	89.5823012890389				
669.397628	207	67.0063324421855				
669.765634	215.333333	75.430334791294				
670.133615	229.333333	82.8543083363649				
670.501573	199.666667	68.278255381721				
670.869506	189.666667	36.3688406230393				
671.237414	194.333333	101.45939706032				
671.605298	122	67.5499248457241				
671.973158	144.333333	68.3070929792522				
672.340993	203.333333	54.0642313087424				
672.708804	190	29.1546759863563				
673.07659	169	90.2450908599325				
673.444352	205	81.0021460816324				
673.812089	157.666667	67.7591714992946				
674.179802	150.333333	76.8495032650804				
674.547491	198.333333	100.27314037899				
674.915156	187.666667	79.6967498410233				
675.282795	168.666667	37.1203293468572				
675.650411	94	39.2105483529764				
676.018002	183.333333	71.300739555058				
676.385569	170	59.0575691052632				
676.753111	136.333333	59.1477038514306				
677.120629	148.666667	25.9044769457218				
677.488123	159.333333	-28.0054436118634				
677.855592	160.333333	23.7512730265137				
678.223037	137.333333	26.5079630130146				
678.590457	152.666667	79.5979561954776				
678.957853	141	24.6879227260644				
679.325225	162.666667	29.444527604775				
679.692572	85.333333	51.2011046794477				
680.059895	149.333333	43.9576531022441				
680.427194	171.666667	16.7141738731643				
680.794468	156.666667	87.4706668400468				
681.161718	174.333333	38.5604641550528				
681.528944	139.333333	110.983567818183				
681.896145	196.666667	52.0733096772749				
682.263322	128.666667	71.4963568844906				
682.630474	169	70.9193752876687				
682.997602	151	39.3423660389705				
683.364706	113.333333	14.4319961383959				
683.731785	146.666667	136.188263433784				
684.09884	184.333333	53.2778370772951				
684.465871	120.333333	99.7007160689303				
684.832878	125	45.1235674086892				
685.19986	114.666667	50.8797229444102				
685.566817	154	132.635849676094				
685.933751	172.666667	99.3919509080623				
686.30066	139	104.148022335993				
686.667545	178.333333	6.90406611204759				
687.034405	109	23.9934150840643				
687.401241	73.333333	121.416069404205				
687.768053	166.666667	70.172029072469				
688.13484	73.666667	31.2612939366956				
688.501603	139.333333	83.6838641490457				
688.868342	98.333333	81.4397397095195				
689.235057	89.666667	101.195588618117				
689.601747	133.666667	35.618074722677				
689.968413	126	113.373866175361				
690.335055	125.666667	11.7962969761679				
690.701672	132	61.8853659729374				
691.068265	113.666667	67.9744063178306				
691.434834	117	57.3967530108476				
691.801378	47	25.4857378998268				
692.167898	198.666667	-4.09197186307028				
692.534394	173	55.9969577221564				
692.900866	110	51.4191926555067				
693.267313	123.333333	27.1747317848193				
693.633736	63	38.9302432622557				
694.000135	117	-5.31427191218421				
694.366509	116	49.774516109338				
694.732859	117.666667	73.196610478984				
695.099185	175.666667	96.2853441967538				
695.465487	79.666667	13.3740502626474				
695.831764	134.333333	36.796060524503				
696.198017	131	20.8847091344824				
696.564246	103	44.3066640925855				
696.93045	108.666667	19.3952572466509				
697.296631	100	10.1504899010016				
697.662787	111.666667	85.5723607513143				
698.028919	141	71.3275379497509				
698.395026	104	37.7493523441498				
698.761109	122.333333	73.8378050866722				
699.127168	117	-18.7404358226816				
699.493203	128	43.3479626160885				
699.859214	104.666667	73.4363334029821				
700.2252	79.666667	97.858008385838				
