	PhCN-TiO2-Ethanol	PhCN-TiO2-water	g-C3N4-TiO2-water
10.0001	7927	9427	3307
10.0502	7729	9760	3216
10.1003	7406	8698	3229
10.1504	7750	8656	3444
10.2005	7948	9458	3255
10.2506	7458	9448	3477
10.3008	7677	9323	3340
10.3509	7573	8896	3880
10.401	7438	9177	3613
10.4511	7667	8813	3398
10.5012	7458	9208	3242
10.5513	7292	9396	3288
10.6014	7313	9281	3001
10.6515	7094	9198	3496
10.7016	7344	9208	3132
10.7517	6802	8969	3184
10.8018	7104	9521	3092
10.852	7125	8448	2943
10.9021	7135	9010	3105
10.9522	6958	8698	3197
11.0023	7219	8990	3125
11.0524	7177	9385	3281
11.1025	6615	8885	3203
11.1526	7219	9021	3522
11.2027	7208	8688	3021
11.2528	6896	8427	3171
11.3029	6677	9219	2760
11.353	7354	8656	3197
11.4032	6438	8521	2897
11.4533	6938	8771	3210
11.5034	7031	8385	2904
11.5535	6479	8208	2910
11.6036	6875	8260	3027
11.6537	6146	8833	3079
11.7038	6365	8656	2747
11.7539	7000	7979	3190
11.804	7281	8198	3008
11.8541	6844	8031	3001
11.9042	6875	8063	3060
11.9543	6885	8854	3027
12.0045	6844	8531	3060
12.0546	6500	8542	2630
12.1047	6990	8740	2904
12.1548	6438	7771	3079
12.2049	6698	8563	2858
12.255	6198	8438	2943
12.3051	6563	8615	3034
12.3552	6198	8802	2930
12.4053	6615	8271	3008
12.4554	6281	7875	3027
12.5055	6542	8073	3079
12.5557	6406	8010	3268
12.6058	6875	7740	2988
12.6559	6250	7844	2936
12.706	6260	8031	2956
12.7561	6396	7594	2832
12.8062	6125	8198	2812
12.8563	6292	7990	2956
12.9064	6052	8271	2988
12.9565	6021	8219	2852
13.0066	6531	7573	3034
13.0567	6063	8208	2793
13.1069	6552	7708	3190
13.157	6000	8104	2819
13.2071	5688	8156	2845
13.2572	6260	7969	2715
13.3073	6646	7427	2975
13.3574	5771	7583	2956
13.4075	5896	7135	2858
13.4576	6438	7896	2871
13.5077	5854	7667	2708
13.5578	5417	7208	2949
13.6079	5865	7583	2728
13.6581	5969	7417	2617
13.7082	5417	7354	2656
13.7583	5729	7563	2871
13.8084	5500	7333	2702
13.8585	5427	7240	2630
13.9086	5438	7615	2441
13.9587	5427	7156	2415
14.0088	5760	7635	2598
14.0589	5615	6865	2480
14.109	5313	6833	2565
14.1591	5156	7219	2526
14.2093	5042	6885	2552
14.2594	5083	6896	2135
14.3095	5250	6635	2513
14.3596	5552	7260	2122
14.4097	4979	6375	2318
14.4598	5521	6896	2266
14.5099	4708	6833	2253
14.56	5333	6865	2220
14.6101	4948	6771	2513
14.6602	4677	6917	2155
14.7103	4885	6896	2057
14.7605	4802	6615	2122
14.8106	5083	6865	2298
14.8607	4635	6958	2135
14.9108	4802	6510	2181
14.9609	4729	6563	1979
15.011	4969	6260	2044
15.0611	4552	6292	2292
15.1112	4750	6458	2109
15.1613	4760	6688	2233
15.2114	4844	6417	2227
15.2615	4573	6323	2187
15.3116	4750	6344	2109
15.3618	4188	6271	1940
15.4119	4146	6083	2155
15.462	4646	6323	1999
15.5121	4615	5906	2155
15.5622	4208	5896	2174
15.6123	4365	5990	1921
15.6624	4323	5927	1927
15.7125	4427	5750	2025
15.7626	4240	5885	2103
15.8127	4198	5792	1921
15.8628	4365	5885	1751
15.913	4052	5667	2070
15.9631	4135	5521	1842
16.0132	4583	5719	1810
16.0633	4229	5646	1660
16.1134	4083	5625	1862
16.1635	3917	5500	1803
16.2136	4219	5885	1621
16.2637	3656	5656	1517
16.3138	4094	5969	1660
16.3639	3552	5344	1615
16.414	4229	5719	1862
16.4642	3844	5396	1849
16.5143	3802	5552	1680
16.5644	3844	5510	1953
16.6145	3667	5406	1842
16.6646	3750	5542	1673
16.7147	3917	5708	1484
16.7648	3500	5219	1712
16.8149	3458	5781	1745
16.865	3646	4844	1673
16.9151	3688	5281	1803
16.9652	3948	5063	1738
17.0154	3375	5281	1654
17.0655	3438	5333	1823
17.1156	3583	5177	1686
17.1657	3542	5094	1719
17.2158	3125	4708	1673
17.2659	3406	4917	1654
17.316	3063	4875	1686
17.3661	3271	4958	1615
17.4162	3271	5083	1947
17.4663	3396	5000	1986
17.5164	3469	5438	2044
17.5666	3438	4542	1927
17.6167	2958	4656	1699
17.6668	3396	5021	1667
17.7169	3177	4563	1725
17.767	3417	4865	1608
17.8171	3292	4948	1660
17.8672	3219	4979	1491
17.9173	3302	4635	1738
17.9674	2948	4406	1810
18.0175	3583	5177	1706
18.0676	3198	4688	1654
18.1177	2635	4552	1641
18.1679	3073	4698	1354
18.218	3250	4604	1725
18.2681	3125	4688	1699
18.3182	3240	5063	1491
18.3683	3135	4479	1510
18.4184	2750	4625	1693
18.4685	2344	4156	1556
18.5186	3010	4594	1465
18.5687	3125	4844	1725
18.6188	2646	4646	1432
18.6689	2844	4719	1478
18.7191	2969	4438	1673
18.7692	2552	4323	1484
18.8193	2938	4833	1289
18.8694	3000	4375	1562
18.9195	2958	4490	1549
18.9696	2688	4531	1439
19.0197	2615	4438	1556
19.0698	3010	4271	1576
19.1199	2479	4135	1549
19.17	2906	4115	1667
19.2201	2781	4073	1504
19.2703	2958	4240	1517
19.3204	3063	4490	1686
19.3705	2823	4323	1549
19.4206	2729	4271	1484
19.4707	2990	4010	1504
19.5208	2906	3885	1673
19.5709	2417	3927	1615
19.621	2948	3948	1680
19.6711	2750	4115	1699
19.7212	2771	4156	1458
19.7713	2854	4417	1497
19.8215	2531	3740	1322
19.8716	2750	4875	1569
19.9217	2990	4240	1517
19.9718	2438	4417	1478
20.0219	2646	4198	1458
20.072	2510	3927	1439
20.1221	2583	4167	1549
20.1722	2750	4354	1615
20.2223	2771	4146	1517
20.2724	2552	4323	1660
20.3225	2771	4063	1419
20.3727	2240	3958	1400
20.4228	2406	4188	1478
20.4729	2333	4344	1465
20.523	2490	4302	1426
20.5731	2521	4052	1615
20.6232	2490	4510	1543
20.6733	2604	3917	1608
20.7234	2500	4208	1712
20.7735	2375	4146	1712
20.8236	2635	4375	1628
20.8737	2385	3896	1549
20.9239	2354	4042	1595
20.974	2667	4177	1901
21.0241	2542	4115	1764
21.0742	2604	3979	1829
21.1243	2344	4521	1576
21.1744	2469	4396	1706
21.2245	2792	3698	1829
21.2746	2625	4469	1543
21.3247	2375	3979	1452
21.3748	2500	4229	1875
21.4249	2333	3917	1777
21.475	2615	4021	1686
21.5252	2635	4313	1497
21.5753	2563	4354	1738
21.6254	2792	4031	1543
21.6755	2750	4448	1602
21.7256	2427	4229	1732
21.7757	2573	4573	1693
21.8258	2417	4125	1777
21.8759	2396	4188	1647
21.926	2500	3917	1738
21.9761	2594	3938	1862
22.0262	2813	4365	1784
22.0764	2594	4500	1868
22.1265	2771	3854	1973
22.1766	2458	4500	1764
22.2267	2531	4104	2103
22.2768	2573	3719	1790
22.3269	2573	4323	1771
22.377	2552	4208	1849
22.4271	2771	4052	1816
22.4772	2469	4333	1816
22.5273	2604	4250	1882
22.5774	2990	4469	2109
22.6276	2604	4438	2012
22.6777	2344	4010	1966
22.7278	2188	4021	2018
22.7779	2792	4146	2155
22.828	2688	4125	1973
22.8781	2833	3958	2077
22.9282	2667	4115	1999
22.9783	2604	4260	2122
23.0284	2833	4531	2292
23.0785	2875	4219	2155
23.1286	2990	3958	2305
23.1788	2792	4281	2533
23.2289	2781	4417	2435
23.279	2938	4083	3027
23.3291	2896	3656	2773
23.3792	2667	4125	2695
23.4293	2969	4094	2793
23.4794	2813	4469	2728
23.5295	2656	4458	2793
23.5796	2990	4188	3021
23.6297	3177	4229	2839
23.6798	3219	4448	3105
23.73	2969	4708	2936
23.7801	3115	4156	2962
23.8302	3323	4354	3229
23.8803	3583	4646	3249
23.9304	3656	5042	3079
23.9805	4000	4667	2708
24.0306	3490	4521	2988
24.0807	3813	4875	3066
24.1308	4406	4604	2878
24.1809	4219	4531	3203
24.231	4365	4552	2930
24.2811	4750	4844	3268
24.3313	5208	4521	3034
24.3814	5771	4635	3275
24.4315	5490	4906	3158
24.4816	6396	4635	3678
24.5317	6698	4854	3464
24.5818	7396	5063	3913
24.6319	8250	5271	3522
24.682	9073	4917	3867
24.7321	10344	5375	4089
24.7822	10698	4813	4160
24.8323	12104	5042	3848
24.8825	13958	5417	4401
24.9326	15552	5458	4102
24.9827	16948	5823	3991
25.0328	19260	5427	4062
25.0829	21490	5813	4342
25.133	23979	5417	4382
25.1831	25208	5896	4245
25.2332	27896	6031	4290
25.2833	28708	5635	4674
25.3334	29990	6406	4772
25.3835	27875	6125	4277
25.4337	27104	5563	4505
25.4838	26667	6167	4525
25.5339	23406	6271	4160
25.584	21490	6875	4460
25.6341	19333	6375	4798
25.6842	17042	6708	4427
25.7343	15510	6615	4655
25.7844	14385	6719	4655
25.8345	13010	6563	4596
25.8846	11240	7490	4069
25.9347	9833	7625	4948
25.9849	8948	7490	4473
26.035	8521	7385	4746
26.0851	7302	6885	4818
26.1352	6698	7688	5143
26.1853	6375	8219	4883
26.2354	5927	8365	4974
26.2855	5521	8969	5260
26.3356	5406	9208	5254
26.3857	4917	9760	5801
26.4358	5083	9760	5651
26.4859	4448	10396	5566
26.5361	4438	10427	6146
26.5862	4188	10292	6113
26.6363	4167	12260	6217
26.6864	3719	12615	6999
26.7365	3656	12917	7454
26.7866	3510	13583	7904
26.8367	3833	13427	8060
26.8868	3052	14458	8633
26.9369	3354	14635	8815
26.987	3458	15833	9622
27.0371	3115	16135	9297
27.0873	3354	16906	9824
27.1374	3313	17188	9401
27.1875	3427	18458	9740
27.2376	3156	18635	10065
27.2877	3250	19448	10189
27.3378	3531	20354	10534
27.3879	3219	20115	10397
27.438	3333	20594	10150
27.4881	3708	20979	9980
27.5382	3750	21396	10111
27.5883	3656	21656	9577
27.6886	3885	23906	9219
27.7387	3813	22760	8965
27.7888	3719	22740	8112
27.8389	4135	21188	7910
27.889	3573	19833	6947
27.9391	3469	18146	6725
27.9892	3271	17240	6504
28.0393	3198	15948	6042
28.0894	2792	14094	5801
28.1395	3177	12833	5456
28.1896	2823	11625	5638
28.2398	2865	10385	5299
28.2899	2323	10104	4935
28.34	2198	9260	4414
28.3901	2625	9094	4297
28.4402	2198	8542	4316
28.4903	2646	7875	4056
28.5404	2406	7438	3965
28.5905	1969	7510	3783
28.6406	1979	6854	3737
28.6907	2115	6406	3451
28.7408	2010	6552	3392
28.791	2177	6000	3184
28.8411	1969	6188	3053
28.8912	2219	5865	2949
28.9413	1833	5656	2754
28.9914	2063	5906	2936
29.0415	1750	5615	2839
29.0916	1969	5188	2917
29.1417	1833	5198	2799
29.1918	1958	5510	2793
29.2419	2031	5365	2637
29.292	1760	4740	2461
29.3422	1844	4833	2650
29.3923	1573	5292	2480
29.4424	1719	4823	2207
29.4925	1604	4656	2389
29.5426	1771	4781	2279
29.5927	1729	4354	2298
29.6428	1885	4813	2181
29.6929	1760	4073	2318
29.743	1740	3823	2227
29.7931	1708	4094	2070
29.8432	1708	4104	2109
29.8934	1542	3844	2187
29.9435	1875	3740	1829
29.9936	1729	4219	1927
30.0437	1479	3917	2070
30.0938	1583	3635	2181
30.1439	1583	3875	2142
30.194	1646	3510	1777
30.2441	1781	4073	1823
30.2942	1458	3927	1816
30.3443	1510	3729	1758
30.3944	1490	3656	1868
30.4446	1458	3740	1823
30.4947	1604	3573	1725
30.5448	1375	3521	1654
30.5949	1510	3313	1634
30.645	1573	3615	1849
30.6951	1615	3365	1719
30.7452	1542	3260	1855
30.7953	1531	3031	1803
30.8454	1927	3135	1706
30.8955	1375	3510	1608
30.9456	1583	3313	1895
30.9957	1302	3458	1569
31.0459	1469	3219	1712
31.096	1406	3177	1641
31.1461	1219	3167	1569
31.1962	1594	3167	1608
31.2463	1583	3063	1478
31.2964	1469	3104	1576
31.3465	1469	3365	1530
31.3966	1500	3198	1647
31.4467	1448	3344	1504
31.4968	1385	3115	1667
31.5469	1479	2781	1628
31.5971	1500	3188	1432
31.6472	1354	2917	1628
31.6973	1469	2833	1523
31.7474	1625	2885	1497
31.7975	1542	3135	1523
31.8476	1677	2958	1439
31.8977	1396	3188	1432
31.9478	1250	3167	1328
31.9979	1323	2813	1315
32.048	1385	2875	1354
32.0981	1250	2688	1374
32.1483	1646	2927	1530
32.1984	1344	2833	1504
32.2485	1177	2573	1367
32.2986	1438	3010	1387
32.3487	1552	2406	1602
32.3988	1385	2677	1413
32.4489	1490	2719	1510
32.499	1313	2510	1576
32.5491	1563	2906	1393
32.5992	1219	3063	1413
32.6493	1438	2281	1406
32.6995	1260	2729	1536
32.7496	1365	2396	1510
32.7997	1479	2677	1426
32.8498	1313	2542	1465
32.8999	1281	2469	1322
32.95	1167	2531	1387
33.0001	1448	2906	1458
33.0502	1135	2854	1348
33.1003	1292	2844	1250
33.1504	1167	2688	1426
33.2005	1208	2813	1523
33.2507	1344	2708	1185
33.3008	1219	2448	1283
33.3509	1354	2813	1237
33.401	1115	2760	1419
33.4511	1260	2719	1445
33.5012	1198	2458	1335
33.5513	1219	2688	1432
33.6014	1240	2500	1328
33.6515	1344	2615	1452
33.7016	1552	2438	1400
33.7517	990	2875	1439
33.8018	1219	2698	1367
33.852	1156	2271	1361
33.9021	1479	2875	1374
33.9522	1344	2802	1374
34.0023	1188	2521	1374
34.0524	1021	2708	1276
34.1025	1427	2688	1497
34.1526	1313	2896	1432
34.2027	1281	2781	1322
34.2528	1396	2688	1504
34.3029	1396	2667	1426
34.353	1500	2844	1576
34.4032	1240	2854	1289
34.4533	1292	2969	1452
34.5034	1385	2729	1406
34.5535	1469	2698	1491
34.6036	1302	2813	1497
34.6537	1177	3031	1751
34.7038	1406	3063	1602
34.7539	1313	3198	1751
34.804	1396	3260	1549
34.8541	1521	3417	1543
34.9042	1417	3365	1641
34.9544	1417	3052	1647
35.0045	1302	3281	1745
35.0546	1125	3219	1745
35.1047	1292	3583	1947
35.1548	1583	3667	1842
35.2049	1365	3969	2051
35.255	1333	3813	2148
35.3051	1292	4146	1810
35.3552	1313	4281	2292
35.4053	1302	4031	2174
35.4554	1479	4208	2585
35.5056	1313	5083	2930
35.5557	1521	4802	2624
35.6058	1448	5333	3027
35.6559	1583	5500	3203
35.706	1438	6354	3314
35.7561	1510	6698	3607
35.8062	1469	7313	4206
35.8563	1427	7292	4193
35.9064	1427	7823	4486
35.9565	1719	8448	5117
36.0066	1490	8740	5189
36.0568	1823	9792	5566
36.1069	1656	9469	5098
36.157	1656	9594	5163
36.2071	1656	9156	5085
36.2572	1698	9125	4922
36.3073	1875	8979	4408
36.3574	1938	8281	4056
36.4075	1771	7677	4089
36.4576	1979	7563	3737
36.5077	2010	6521	3509
36.5578	1854	6396	3197
36.608	2396	5792	3053
36.6581	2406	5958	3138
36.7082	2521	5271	2773
36.7583	2729	4667	2917
36.8084	2990	4177	2559
36.8585	3042	4250	2415
36.9086	3010	3854	2344
36.9587	3531	4010	2331
37.0088	3281	3594	2363
37.0589	3260	3510	2415
37.109	3271	3427	2207
37.1591	3240	3458	2025
37.2093	3990	2823	2116
37.2594	3531	2771	2161
37.3095	3813	2865	2142
37.3596	4021	2750	2096
37.4097	4125	2969	2044
37.4598	4760	2833	2331
37.5099	4740	2479	2292
37.56	5344	2885	1947
37.6101	5938	2927	2461
37.6602	6365	2521	2207
37.7103	7188	2615	2227
37.7605	7917	2750	2187
37.8106	8281	2563	2305
37.8607	8344	2781	2025
37.9108	8417	2698	2415
37.9609	8073	2646	1888
38.011	8188	2583	1849
38.0611	7281	2594	2090
38.1112	6823	2427	2096
38.1613	5885	2833	1927
38.2114	5063	2646	1855
38.2615	5031	2531	1960
38.3117	4771	2542	1875
38.3618	4938	2594	1862
38.4119	4594	2656	1758
38.462	4104	2375	1797
38.5121	3646	2604	1901
38.5622	3573	2615	2044
38.6123	3656	2927	1836
38.6624	3323	2833	1953
38.7125	3094	2271	1986
38.7626	3375	2521	1882
38.8127	2958	2500	1829
38.8629	2740	2500	1751
38.913	2635	2510	1803
38.9631	2344	2656	1595
39.0132	2063	2760	1790
39.0633	2042	2375	1771
39.1134	2115	2542	1745
39.1635	1948	2698	1719
39.2136	1969	2688	1712
39.2637	1885	2406	1888
39.3138	1667	2573	1517
39.3639	1708	2823	1771
39.4141	1656	2510	1484
39.4642	1385	2740	1680
39.5143	1323	2646	1634
39.5644	1740	2073	1888
39.6145	1563	2479	1777
39.6646	1448	2573	1712
39.7147	1542	2490	1595
39.7648	1344	2813	1673
39.8149	1417	2438	1647
39.865	1177	2344	1452
39.9151	1448	2469	1465
39.9653	1250	2417	1569
40.0154	1323	2417	1641
40.0655	1208	2667	1732
40.1156	1292	2354	1634
40.1657	1375	3010	1621
40.2158	1177	2635	1536
40.2659	1146	3042	1738
40.316	1188	2854	1764
40.3661	1198	3198	1875
40.4162	1219	3125	1745
40.4663	1313	3292	1797
40.5164	1063	3479	2109
40.5666	1167	3469	2240
40.6167	1354	3760	2168
40.6668	1229	4042	2396
40.7169	979	4458	2513
40.767	1000	4510	2389
40.8171	1073	4708	2767
40.8672	990	4646	2930
40.9173	1073	5375	2884
40.9674	1177	5479	2995
41.0175	990	5781	3164
41.0676	1177	6000	3236
41.1178	1104	5917	3112
41.1679	1083	5615	3529
41.218	1052	6052	3340
41.2681	1042	6375	3437
41.3182	1146	5500	3522
41.3683	948	5990	3379
41.4184	1135	5146	3073
41.4685	1094	5344	2969
41.5186	1240	5427	2598
41.5687	1146	4708	2591
41.6188	1104	4531	2454
41.669	979	4313	2194
41.7191	1219	3802	2135
41.7692	948	3500	2077
41.8193	1094	3563	1986
41.8694	979	3344	1725
41.9195	844	3188	1921
41.9696	1042	3115	1536
42.0197	1021	3115	1510
42.0698	917	3125	1602
42.1199	1115	2844	1751
42.17	1125	2531	1530
42.2202	958	2583	1230
42.2703	1135	2250	1335
42.3204	1198	2552	1484
42.3705	990	2604	1452
42.4206	1010	2510	1276
42.4707	1094	2313	1497
42.5208	1063	2688	1230
42.5709	927	2302	1296
42.621	896	2510	1230
42.6711	813	2500	1393
42.7212	1135	2469	1243
42.7714	1010	2406	1322
42.8215	833	2177	1257
42.8716	896	2115	1400
42.9217	1094	2438	1276
42.9718	781	2698	1250
43.0219	1000	2271	1491
43.072	896	2167	1426
43.1221	1104	2281	1504
43.1722	1000	2240	1458
43.2223	948	2542	1406
43.2724	948	2656	1367
43.3225	969	2313	1569
43.3727	1000	2854	1686
43.4228	948	2792	1641
43.4729	958	2552	1458
43.523	823	2635	1497
43.5731	1063	2698	1576
43.6232	990	2917	1335
43.6733	1000	2646	1641
43.7234	854	2771	1523
43.7735	813	2677	1322
43.8236	938	2656	1621
43.8737	1000	3083	1628
43.9239	792	2531	1732
43.974	917	2781	1699
44.0241	885	2146	1484
44.0742	729	2625	1250
44.1243	917	2323	1497
44.1744	906	2188	1491
44.2245	1010	2240	1387
44.2746	990	2156	1569
44.3247	875	2260	1257
44.3748	917	2177	1341
44.4249	927	2146	1309
44.4751	1125	2135	1517
44.5252	844	2229	1224
44.5753	938	2021	1517
44.6254	1052	2083	1178
44.6755	844	1938	1289
44.7256	1000	2094	1224
44.7757	927	1750	1211
44.8258	906	1625	1204
44.8759	854	1865	1081
44.926	1010	2000	1009
44.9761	938	1583	1217
45.0263	885	2156	1113
45.0764	1115	2010	1107
45.1265	1115	1938	1263
45.1766	948	1740	1361
45.2267	771	1719	1061
45.2768	948	1719	1120
45.3269	865	1615	1074
45.377	969	1792	1237
45.4271	1073	1771	1068
45.4772	1052	1688	1087
45.5273	1031	1917	1107
45.5775	958	1667	1061
45.6276	1073	1573	1204
45.6777	1063	1573	1217
45.7278	1167	1677	1081
45.7779	1313	1427	1237
45.828	1104	1406	1211
45.8781	1115	1802	1276
45.9282	1063	1625	1061
45.9783	1177	1844	1087
46.0284	1083	1708	1185
46.0785	1042	1438	1204
46.1287	1063	1771	990
46.1788	1073	1563	996
46.2289	1104	1677	1126
46.279	1417	1396	1055
46.3291	1208	1583	1283
46.3792	1260	1719	1243
46.4293	1219	1667	1126
46.4794	1177	1844	1159
46.5295	1240	1667	1230
46.5796	1469	1646	1165
46.6297	1406	1583	1296
46.6798	1729	1396	1380
46.73	1688	1646	1263
46.7801	1396	1510	1270
46.8302	1344	1583	1237
46.8803	1708	1635	1426
46.9304	1688	1531	1341
46.9805	1813	1458	1380
47.0306	1990	1458	1608
47.0807	2094	1396	1439
47.1308	2125	1573	1432
47.1809	2479	1698	1335
47.231	2510	1656	1465
47.2812	2885	1708	1354
47.3313	2969	1500	1595
47.3814	3479	1458	1458
47.4315	3740	1510	1536
47.4816	3917	1604	1569
47.5317	4427	1292	1400
47.5818	4781	1458	1452
47.6319	4833	1552	1530
47.682	6177	1667	1289
47.7321	6542	1802	1367
47.7822	6719	1500	1452
47.8324	7646	1521	1243
47.8825	8198	1542	1393
47.9326	8427	1510	1406
47.9827	8969	1469	1452
48.0328	9292	1677	1439
48.0829	8531	1656	1406
48.133	8563	1708	1504
48.1831	7542	1552	1562
48.2332	7656	1792	1497
48.2833	6604	1531	1224
48.3334	6771	1615	1458
48.3836	5885	1385	1452
48.4337	5438	1583	1309
48.4838	4656	1531	1374
48.5339	4052	1573	1204
48.584	3854	1552	1302
48.6341	3750	1448	1120
48.6842	3219	1479	1348
48.7343	2927	1365	1243
48.7844	2833	1635	1374
48.8345	2198	1531	1289
48.8846	2396	1604	1204
48.9348	2073	1427	1081
48.9849	1948	1594	1113
49.035	1667	1521	1087
49.0851	1677	1844	1165
49.1352	1740	1552	1178
49.1853	1396	1292	1003
49.2354	1500	1625	1198
49.2855	1375	1281	1289
49.3356	1438	1188	977
49.3857	1229	1646	1100
49.4358	1104	1333	1081
49.486	1375	1479	1048
49.5361	1073	1531	1224
49.5862	1396	1417	1068
49.6363	1260	1271	1107
49.6864	1125	1448	918
49.7365	948	1448	1276
49.7866	1292	1385	1113
49.8367	1125	1625	996
49.8868	1146	1573	1068
49.9369	1125	1604	990
49.987	896	1615	1120
50.0371	1094	1542	931
50.0873	1177	1354	859
50.1374	802	1438	1120
50.1875	958	1344	1029
50.2376	1031	1771	1126
50.2877	1031	1438	833
50.3378	1052	1323	1100
50.3879	1052	1354	1087
50.438	1000	1438	1042
50.4881	1031	1479	1035
50.5382	1031	1417	1048
50.5883	917	1552	983
50.6385	885	1594	1094
50.6886	948	1563	905
50.7387	1021	1396	1042
50.7888	1031	1479	1029
50.8389	906	1667	1146
50.889	969	1625	1081
50.9391	938	1542	1087
50.9892	1156	1365	1009
51.0393	1010	1500	964
51.0894	990	1615	1172
51.1395	917	1667	983
51.1897	990	1490	1133
51.2398	1083	1635	1257
51.2899	792	1729	1048
51.34	990	1510	1100
51.3901	865	1750	1003
51.4402	917	1604	1087
51.4903	990	1781	1081
51.5404	948	1750	1146
51.5905	1167	1615	957
51.6406	781	1979	1283
51.6907	1010	1833	1387
51.7409	1073	1563	1107
51.791	854	2010	1165
51.8411	865	2010	1270
51.8912	1010	1865	1283
51.9413	1135	1917	1283
51.9914	1135	2115	1152
52.0415	1083	1927	1185
52.0916	792	2010	1426
52.1417	896	2031	1413
52.1918	1042	1885	1204
52.2419	1135	1958	1211
52.2921	1260	1875	1302
52.3422	1115	1781	1400
52.3923	1240	1656	1341
52.4424	1115	2250	1413
52.4925	1042	1990	1419
52.5426	1198	2365	1400
52.5927	1292	2698	1452
52.6428	1458	2563	1634
52.6929	1417	2625	1615
52.743	1406	2313	1758
52.7931	1198	2427	1803
52.8432	1344	2792	1842
52.8934	1427	2594	1784
52.9435	1333	3000	1849
52.9936	1615	2948	1901
53.0437	1635	3260	2246
53.0938	1719	3281	2129
53.1439	2083	3146	2201
53.194	2073	3583	2337
53.2441	2115	3969	2448
53.2942	2354	3552	2344
53.3443	2281	3948	2689
53.3944	2698	4417	2910
53.4446	2552	4292	2897
53.4947	3083	4458	2884
53.5448	3302	4750	3314
53.5949	3615	4781	3229
53.645	4656	5354	3457
53.6951	4854	5802	3965
53.7452	4875	6281	4121
53.7953	5323	6083	3848
53.8454	5917	6823	4284
53.8955	6448	6271	4147
53.9456	6677	7115	4661
53.9958	6333	7240	4733
54.0459	7010	7594	4746
54.096	5823	7188	4896
54.1461	5667	7281	4941
54.1962	5594	7302	4818
54.2463	5333	6844	4896
54.2964	5083	7156	4870
54.3465	4573	7365	4785
54.3966	4625	7010	4980
54.4467	4573	7323	4779
54.4968	4396	6885	4264
54.547	4385	6740	4212
54.5971	4458	6365	4069
54.6472	4698	6948	4121
54.6973	5125	5958	3535
54.7474	4688	5219	3477
54.7975	5208	5719	3366
54.8476	5198	5292	3346
54.8977	4958	5438	3105
54.9478	5292	5219	3125
54.9979	5479	5063	3184
55.048	4990	4313	2715
55.0982	5594	4375	2832
55.1483	4698	4365	2650
55.1984	4948	3979	2669
55.2485	4979	4250	2565
55.2986	4344	3740	2591
55.3487	4385	3729	2611
55.3988	3802	3969	2357
55.4489	3698	3417	2233
55.499	3271	3729	2376
55.5491	3438	3583	2279
55.5992	2677	3573	2285
55.6494	2438	3552	2207
55.6995	2271	3313	2161
55.7496	2500	3906	2318
55.7997	1875	3583	2129
55.8498	2406	4146	2435
55.8999	2125	3792	2357
55.95	1917	3469	2051
56.0001	1583	3635	2174
56.0502	1792	3177	2435
56.1003	1688	3615	2096
56.1504	1729	3281	2383
56.2005	1354	3260	2253
56.2507	1427	3240	2292
56.3008	1250	3448	2292
56.3509	1406	3479	2513
56.401	1271	3260	2109
56.4511	1010	3375	1908
56.5012	1198	3156	2090
56.5513	1281	3521	2057
56.6014	1281	2979	2012
56.6515	1250	2885	2064
56.7016	1052	3302	1868
56.7517	1083	3083	1764
56.8019	1219	2875	1738
56.852	917	3031	1673
56.9021	969	2729	1673
56.9522	1042	2417	1797
57.0023	1021	2354	1667
57.0524	969	2510	1445
57.1025	1135	2313	1432
57.1526	1000	2615	1497
57.2027	1063	2604	1439
57.2528	1010	2302	1562
57.3029	802	2385	1530
57.3531	927	2344	1309
57.4032	1000	2042	1445
57.4533	792	2115	1237
57.5034	906	2125	1328
57.5535	1031	2104	1309
57.6036	1052	1927	1250
57.6537	979	2021	1113
57.7038	708	1969	1230
57.7539	990	1917	1224
57.804	1000	1927	1087
57.8541	1063	2021	1159
57.9043	833	1990	1042
57.9544	813	1865	1003
58.0045	1021	1844	898
58.0546	958	1813	937
58.1047	823	1708	1055
58.1548	740	1438	1003
58.2049	781	1531	996
58.255	958	1656	957
58.3051	823	1354	1009
58.3552	938	1458	892
58.4053	948	1760	990
58.4555	844	1469	872
58.5056	1010	1615	1009
58.5557	813	1573	801
58.6058	708	1510	840
58.6559	917	1531	983
58.706	813	1500	872
58.7561	792	1448	970
58.8062	823	1625	1022
58.8563	844	1500	827
58.9064	1031	1427	846
58.9565	802	1344	788
59.0067	667	1260	1009
59.0568	1000	1323	684
59.1069	875	1406	801
59.157	771	1188	820
59.2071	906	1406	840
59.2572	719	1167	859
59.3073	635	1438	872
59.3574	813	1448	820
59.4075	677	1406	827
59.4576	833	1531	768
59.5077	844	1458	755
59.5578	813	1333	957
59.608	854	1229	794
59.6581	885	1313	970
59.7082	938	1167	898
59.7583	719	1458	827
59.8084	979	1323	898
59.8585	917	1385	898
59.9086	979	1375	775
59.9587	781	1521	859
60.0088	885	1344	885
60.0589	854	1365	898
60.109	958	1250	723
60.1592	948	1281	1022
60.2093	917	1188	885
60.2594	917	1490	827
60.3095	781	1177	866
60.3596	1083	1344	788
60.4097	792	1229	937
60.4598	1010	1333	905
60.5099	1042	1292	853
60.56	1063	1229	801
60.6101	760	1427	833
60.6602	1000	1385	892
60.7104	917	1427	898
60.7605	885	1083	781
60.8106	854	1135	898
60.8607	1083	1365	762
60.9108	1198	1188	892
60.9609	1042	1146	768
61.011	1042	1573	918
61.0611	1188	1521	814
61.1112	1052	1417	853
61.1613	1188	1365	1035
61.2114	1104	1458	1035
61.2616	1198	1448	1016
61.3117	990	1302	957
61.3618	1188	1354	970
61.4119	1313	1406	879
61.462	1198	1542	1250
61.5121	1552	1365	990
61.5622	1469	1375	1048
61.6123	1448	1510	1016
61.6624	1667	1521	983
61.7125	2135	1563	1029
61.7626	1906	1448	1120
61.8128	2063	1563	1172
61.8629	1927	1667	957
61.913	2167	1833	977
61.9631	2083	1875	1217
62.0132	2510	1698	1081
62.0633	2458	1469	1191
62.1134	2625	1552	1263
62.1635	2979	1542	1152
62.2136	3010	1719	1120
62.2637	3010	1646	1361
62.3138	3323	1740	1230
62.3639	3573	1969	1335
62.4141	3906	2010	1217
62.4642	4021	2031	1348
62.5143	4729	1969	1419
62.5644	4344	1979	1491
62.6145	4125	2271	1582
62.6646	4552	2219	1686
62.7147	4240	2365	1790
62.7648	4292	2260	1973
62.8149	4365	3021	2057
62.865	4167	2792	2135
62.9151	3875	2865	2194
62.9653	3313	3094	2148
63.0154	3188	3052	2155
63.0655	3188	2792	1862
63.1156	3198	3135	1751
63.1657	2771	2802	1921
63.2158	2594	2854	1790
63.2659	2604	2854	1634
63.316	2271	2583	1647
63.3661	1906	2604	1484
63.4162	1875	2729	1413
63.4663	1813	2552	1380
63.5165	1760	2542	1445
63.5666	1760	2427	1393
63.6167	1635	2292	1354
63.6668	1365	2104	1257
63.7169	1427	2281	1387
63.767	1302	2188	1204
63.8171	1344	2229	1204
63.8672	1323	2292	1191
63.9173	1188	2073	1322
63.9674	1125	2188	1387
64.0175	1156	1823	1230
64.0677	1198	2010	1270
64.1178	1271	1844	1152
64.1679	1167	1729	1172
64.218	1000	1740	1087
64.2681	1115	1615	1204
64.3182	927	1417	983
64.3683	958	1823	866
64.4184	958	1656	1185
64.4685	750	1760	1022
64.5186	1094	1563	892
64.5687	979	1708	931
64.6189	906	1792	970
64.669	781	1802	1003
64.7191	938	1719	918
64.7692	1000	1604	1042
64.8193	885	1719	937
64.8694	979	1594	846
64.9195	792	1542	957
64.9696	833	1500	1003
65.0197	833	1354	990
65.0698	844	1542	983
65.1199	708	1688	781
65.1701	813	1375	853
65.2202	708	1427	885
65.2703	927	1458	814
65.3204	719	1344	853
65.3705	979	1438	892
65.4206	854	1229	840
65.4707	906	1323	924
65.5208	896	1240	820
65.5709	844	1292	846
65.621	677	1583	833
65.6711	802	1344	892
65.7212	802	1094	944
65.7714	875	1604	846
65.8215	688	1188	697
65.8716	865	1302	781
65.9217	771	1365	710
65.9718	750	1115	697
66.0219	906	1583	879
66.072	854	1229	846
66.1221	865	1219	918
66.1722	823	1323	710
66.2223	823	1365	723
66.2724	844	1479	729
66.3226	854	1167	820
66.3727	813	1385	924
66.4228	604	1698	801
66.4729	771	1438	710
66.523	833	1365	859
66.5731	771	1573	892
66.6232	688	1469	931
66.6733	771	1510	879
66.7234	708	1240	1003
66.7735	740	1271	1003
66.8236	615	1375	885
66.8738	927	1313	944
66.9239	750	1583	866
66.974	760	1385	944
67.0241	802	1427	892
67.0742	813	1406	924
67.1243	865	1240	866
67.1744	813	1552	964
67.2245	594	1427	990
67.2746	635	1615	937
67.3247	740	1750	911
67.3748	813	2031	911
67.425	771	1552	944
67.4751	750	1635	1087
67.5252	740	1646	1022
67.5753	813	1844	1003
67.6254	802	1792	1185
67.6755	927	1792	1211
67.7256	844	1688	1126
67.7757	969	1865	1113
67.8258	1000	1823	1230
67.8759	802	1927	1257
67.926	979	2052	1237
67.9762	1198	1875	1257
68.0263	1177	1990	1458
68.0764	958	2042	1348
68.1265	938	2427	1452
68.1766	1094	2563	1686
68.2267	1177	2292	1536
68.2768	1333	2552	1602
68.3269	1469	2365	1758
68.377	1344	2229	1602
68.4271	1500	2646	1810
68.4772	1552	2510	1471
68.5274	1385	2635	1719
68.5775	1771	2677	1823
68.6276	1906	2896	1641
68.6777	2094	2583	1719
68.7278	1990	2688	1576
68.7779	2177	3021	1914
68.828	2167	2625	1589
68.8781	1990	2542	1784
68.9282	1875	2521	1758
68.9783	2083	2469	1895
69.0284	2010	2583	1875
69.0785	1865	2458	1797
69.1287	1813	2719	1764
69.1788	1979	2448	1758
69.2289	1729	2677	1549
69.279	1625	2260	1667
69.3291	1385	2167	1667
69.3792	1708	2823	1849
69.4293	1490	2042	1895
69.4794	1583	2354	1732
69.5295	1531	2333	1712
69.5796	1594	2052	1771
69.6297	1688	2656	1758
69.6799	1667	2313	1810
69.73	1667	2573	1777
69.7801	1865	2333	1712
69.8302	1708	2583	1758
69.8803	1719	2188	1569
69.9304	1927	2365	1725
69.9805	2052	2375	1608